4271	4271
-15330	-15330
-32768	-32768
62685	9821
62696	11434
62707	6930
67908	1230
90059	148
90071	159
90453	124
90466	143
90810	114
91077	95
91090	96
91349	70
91571	112
91584	110
91813	137
91826	140
92078	179
92304	184
92537	150
92783	126
92796	133
93144	139
93444	100
93730	115
93961	162
94188	159
94389	147
94401	166
94617	162
94863	168
94875	165
95121	179
95133	172
95464	143
95477	141
95779	111
96022	126
96257	125
96535	114
96781	107
96993	115
97006	129
97209	140
97221	154
97412	144
97425	158
97623	190
97636	188
97903	154
97915	157
98142	163
98367	219
98595	163
98819	202
99038	162
99051	165
99256	179
99268	180
99478	172
99490	176
99697	165
99709	179
99905	187
99918	203
100130	205
100334	227
100346	231
100569	206
100581	213
100807	177
100819	176
101033	140
101046	139
101272	155
101284	162
101502	161
101514	162
101754	166
101766	177
102008	183
102021	176
102241	147
102254	147
102461	139
102473	144
102712	132
102965	136
102977	147
103208	161
103220	173
103472	188
103691	180
103703	191
103941	181
103954	179
104211	172
104434	169
104446	173
104662	179
104674	187
104898	183
105274	118
105287	133
105598	165
105829	158
106044	168
106255	161
106268	163
106615	148
106628	157
106984	135
107201	147
107213	155
107432	176
107444	181
107689	159
107702	157
107928	144
108194	111
108439	161
108451	155
108835	140
109120	121
109132	121
109409	152
109422	157
109650	140
109867	129
110082	152
110094	155
110469	95
110723	100
110736	107
110987	136
110999	139
111265	96
111489	216
111502	230
111804	170
112121	125
112355	104
112582	148
112805	168
112817	172
113147	162
113160	169
113397	170
113409	176
113651	191
113887	170
114106	166
114324	176
114607	139
114619	137
114857	163
114869	159
115141	150
115154	150
115375	119
115387	133
115621	135
115634	124
115904	124
115917	124
116261	64
116274	77
116575	111
116867	53
117104	108
117116	112
117350	162
117556	197
117569	198
117966	122
118252	157
118264	165
118591	130
118604	129
118843	126
118856	135
119100	141
119112	144
119345	126
119357	129
119608	107
119828	137
119841	141
120085	161
120097	157
120331	152
120343	154
120594	170
120606	170
120824	128
120836	135
121057	89
121070	93
121343	162
121356	168
121705	93
121718	101
121988	82
122000	89
122250	125
122262	135
122493	161
122694	155
122706	162
122902	166
122915	170
123278	135
123291	136
123530	176
123542	186
123762	174
123775	176
123995	174
124196	180
124208	192
124459	161
124720	152
124733	151
125055	181
125068	180
125343	24
125355	15
125604	84
125616	96
125867	122
126090	154
126293	154
126305	150
126521	174
126533	170
126897	112
126910	125
127186	88
127199	101
127496	118
127771	78
127987	97
127999	103
128207	159
128220	174
128418	152
128430	161
128625	159
128638	169
128933	155
128945	158
129156	181
129169	177
129470	165
129482	168
129756	128
129768	128
130001	168
130013	170
130232	234
130245	294
130446	329
130459	319
130662	264
130674	287
130885	248
130897	220
131119	74
131131	101
131377	13
131390	26
131600	-50
131795	31
131807	50
131998	62
132010	55
132198	59
132211	78
132390	66
132402	71
132584	92
132597	95
132783	114
132795	124
132982	108
132994	119
133174	111
133187	126
133377	121
133389	126
133575	157
133587	161
133783	136
133796	154
133985	119
133997	126
134184	85
134197	97
134389	121
134401	162
134619	143
134631	137
134849	89
134861	97
147141	32767
147155	-677
147187	3217
147201	-32768
147288	24455
151341	-6648
151373	-32768
151393	-2984
151408	7850
151437	-32768
151539	-3937
151573	-5673
152666	-11283
162265	-32768
162323	32767
162332	32767
162355	32767
162365	-13127
165019	7519
165642	-21065
172972	14874
172984	16165
173012	-32768
173032	12298
173047	20969
194931	-32768
194982	-32768
194994	32767
195035	-15854
195384	-1607
203956	32767
204070	32767
217490	28698
217861	-32768
217960	32767
217992	-29855
219588	12496
219932	-32768
221869	-32768
221906	-32768
222310	19412
222327	3218
222467	-32768
222878	-19723
223109	-32768
237945	-32768
238691	-20605
239882	32767
239905	32767
239930	-32768
240031	-16210
240039	-30090
240049	-32768
240277	-7760
244198	-32768
245103	-12796
277532	3047
278213	-32768
278482	-32768
278571	-32768
278601	32767
295818	-19077
295883	-27629
295932	-32768
295952	-82
296138	-32768
296149	-9423
296194	-2882
300444	12427
303772	3538
303789	-32768
303823	-513
307192	-7106
321111	-3536
321155	-26133
321185	8354
321198	-32768
321257	-229
321271	32767
321283	-13743
321311	-32768
327747	1205
333479	8887
333491	16835
336932	8996
336969	11337
336989	4081
337007	32767
337030	32767
337045	32767
337078	32767
337093	13597
348896	-5118
349214	7866
372455	-32768
373992	32767
386941	-32768
392856	-23744
392866	-24393
393058	-32768
394240	32767
394253	32767
394413	32767
394606	-32740
394732	-1870
394821	32767
398166	-23964
398176	-32768
398451	-32768
398503	-32768
398526	32767
399521	-32768
399577	32767
399609	32767
399623	-32768
399645	32767
399663	-32768
399681	-32768
399695	-32768
401272	-3522
439334	-32768
439595	-32768
439635	-32768
439715	32767
440488	32767
440860	-32768
440913	-32768
441370	-31628
441400	-25755
441800	-32768
441859	-32768
441922	20768
441924	13214
441997	-32768
442711	-32768
442733	32767
442802	32767
442838	32767
461602	-32768
461637	26814
461662	27858
461673	32767
461723	32767
465408	32767
466673	-32768
466727	-32768
466804	26886
466818	15945
467314	-9251
467399	-32768
468257	-11521
468285	-32768
468983	7071
508970	-15498
509020	32767
575170	1135
585021	55
585446	15
585828	-35
586226	-104
586625	-136
587028	-130
587414	-91
587804	9
588202	34
588468	90
588866	188
589187	197
589426	188
590193	101
590571	281
590919	261
591274	179
591622	-147
591987	208
592288	159
592629	-364
592933	308
593253	132
593598	143
593884	128
594141	146
594405	100
594684	111
595031	95
595349	527
595615	578
595832	1153
596049	1270
596289	887
596524	552
596899	270
597189	103
597559	31
597886	-35
598255	-79
598491	-75
598902	-286
599268	-236
599649	-342
600028	-275
600407	-236
600782	-236
601152	-262
601530	-192
601906	-152
602295	-137
602637	-125
603025	-122
603377	-120
603755	-85
604125	-85
604498	-28
604812	23
605202	-40
605543	-14
605927	-13
606228	15
606637	-39
607003	-9
607387	-38
607772	-20
608155	-5
608538	22
608900	30
609273	44
609510	79
609718	2777
610306	103
610676	107
611068	-155
611453	103
611794	126
612110	165
612401	124
612694	53
613020	79
613379	104
613719	55
614044	952
614085	9380
614362	489
614679	604
615050	427
615335	221
615697	97
616049	-24
616305	-10
616683	-71
617021	-43
617360	-32
617695	-35
617988	-23
618361	-39
618613	-3
618989	122
619252	46
619642	24
620009	77
620252	17
620540	-519
620908	-393
621218	-399
621452	214
621696	205
622068	108
622405	137
622644	270
622886	343
623295	275
623631	264
623866	337
624076	507
624511	604
624766	431
625138	205
625479	406
625799	376
626097	216
626428	119
626763	49
627006	217
627287	133
627560	143
627920	34
628225	24
628573	-16
628819	-5
629214	-739
629558	181
629946	-89
673466	-12378
688312	-11123
706076	2274
712091	-5121
712116	32767
712120	32767
712133	-5447
712487	-4709
732359	-1380
736528	9102
754471	507
805151	-2036
805542	-23279
807842	-199
807886	442
808065	-26162
808269	-32768
808282	4906
809553	-28881
812518	20755
812547	-24194
812964	-16249
813093	10353
819922	-5303
849648	-32768
864981	-32768
865010	-32768
865019	-32768
865041	32222
865051	-32768
865074	32767
865087	-32768
865133	-32768
865150	-32768
865165	-32768
865210	-32768
865384	32767
865399	32767
866128	32767
904639	-1187
913715	-32768
913768	-32768
913872	-7975
914524	4137
914569	-32768
914616	-32768
915136	32767
915177	-32768
919000	32767
919015	32767
945012	77
945394	81
945751	104
946137	35
946491	62
946882	106
947239	92
947631	90
948001	82
948389	89
948768	50
949136	81
949507	68
949883	97
950258	81
950623	86
951004	60
951366	63
951743	88
952113	52
952480	53
952837	101
953103	92
953509	37
953874	110
954251	52
954616	95
954986	49
955338	97
955699	34
956066	48
956424	50
956797	81
957154	37
957539	84
957894	115
958281	77
958566	100
958965	115
959335	62
959726	50
960093	60
960479	106
960846	77
961238	108
961614	93
962009	86
962392	57
962759	52
963155	63
963527	92
963917	63
964273	-728
964656	567
965026	308
965410	184
965771	144
966144	108
966511	-530
966539	-961
966558	-480
966864	581
967208	453
967579	362
967940	217
968312	155
968624	128
969008	100
969362	78
969729	74
970040	114
970400	81
970759	74
971112	82
971368	52
971750	90
972127	39
972498	52
972883	57
973280	84
973661	64
974067	38
974425	39
974816	48
975176	71
975550	60
975928	110
976301	38
976664	41
977035	53
977401	89
977763	99
978124	50
978480	90
978727	112
979111	93
979343	111
979741	59
980112	41
980488	75
980880	60
981247	45
981633	77
982000	88
982379	103
982737	99
983114	77
983466	60
983858	62
984233	27
984588	63
984954	73
985312	63
985657	62
986025	45
986296	68
986684	172
987029	345
987405	242
987762	126
988127	71
988459	81
988824	63
989134	-246
989514	152
989873	110
1022307	3240
1022356	-32768
1022402	-1895
1022429	2932
1022591	4153
1071699	-331
1072112	684
1075625	-6755
1075649	-18044
1108344	-32768
1108356	-32768
1108359	-32768
1108836	-9922
1109225	12920
1109266	-32768
1109313	-8173
1109323	1161
1109356	-32768
1109732	9616
1111332	384
1111405	18575
1111618	-21170
1111642	32767
1111653	16006
1111801	14148
1111820	4063
1115879	-7746
1125247	88
1125539	96
1125780	50
1125793	79
1126168	52
1126397	5
1126410	35
1126792	30
1127042	33
1127430	26
1127674	6
1127904	62
1128184	59
1128557	97
1128835	117
1129165	115
1129528	66
1129905	37
1130267	27
1130653	34
1131010	70
1131390	42
1131752	67
1132103	44
1132484	48
1132847	50
1133194	73
1133459	92
1133704	66
1134094	-21
1134396	45
1134760	45
1135108	56
1135463	70
1135770	45
1136135	20
1136422	20
1136794	1
1137126	42
1137493	30
1137795	27
1138148	17
1138488	57
1138829	55
1139185	35
1139452	62
1139836	73
1140116	70
1140367	84
1140779	46
1141148	46
1141552	11
1141934	33
1142307	35
1142698	15
1143058	75
1143437	52
1143805	67
1144169	34
1144526	46
1144882	88
1145236	81
1145551	57
1145903	79
1146199	81
1146570	79
1146927	19
1147227	56
1147579	57
1147934	44
1148269	16
1148628	48
1148970	85
1149326	48
1149640	34
1149993	64
1150292	90
1150658	90
1150988	66
1151339	64
1151586	107
1151979	84
1152251	75
1152264	81
1152651	81
1152950	79
1153330	46
1153638	62
1153986	67
1154358	86
1154626	55
1154849	64
1155075	126
1155485	68
1155820	78
1155833	99
1156209	89
1156574	122
1156957	112
1157329	112
1157702	88
1158065	67
1158426	73
1158795	73
1159158	82
1159516	74
1159863	86
1160220	55
1160557	49
1160920	48
1161209	95
1161600	95
1161955	82
1162320	85
1162587	81
1162971	101
1163205	114
1163639	92
1164020	23
1164033	35
1164462	38
1164845	42
1164858	59
1165261	62
1165651	90
1166059	44
1166444	88
1166832	53
1167221	106
1167595	77
1167984	97
1168351	88
1168720	38
1169060	57
1169425	23
1169779	59
1196205	-32768
1221285	32767
1221296	32767
1221327	32767
1221357	-32768
1281869	5642
1281890	25877
1281931	-10777
1282040	32767
1282070	35
1305185	5
1305509	5
1305823	62
1306177	68
1306542	2
1306881	75
1307119	75
1307358	49
1307732	16
1308064	82
1308415	24
1308769	41
1309117	52
1309467	77
1309819	24
1310190	5
1310551	56
1310923	39
1311227	48
1311595	27
1311825	2488
1312062	1721
1312453	1419
1312814	847
1313183	469
1313557	62
1313922	-236
1314292	-295
1314649	-249
1315010	-221
1315382	-122
1315751	-120
1316109	-76
1316484	-13
1316843	46
1317201	96
1317569	50
1317911	49
1318196	122
1318533	33
1318869	50
1319238	96
1319474	8
1319705	-28
1319953	-45
1320358	12
1320741	-12
1321116	-24
1321499	-34
1321875	34
1322241	49
1322606	-13
1322985	-16
1323365	4
1323748	-14
1324057	22
1324452	-38
1324823	-17
1325207	12
1325577	-18
1325954	12
1326331	-34
1326600	3680
1326624	7411
1326674	4343
1326696	6813
1326821	6928
1327065	-1407
1327408	-780
1327646	-1259
1327900	-1048
1328168	-823
1328405	-687
1328691	-550
1328971	-463
1329242	-342
1329574	-224
1329837	-204
1330183	-156
1330463	-127
1330811	-31
1331138	-104
1331473	-24
1331792	-102
1332024	-160
1332249	77
1332657	-119
1332904	42
1333294	0
1333544	-56
1333937	15
1334277	-69
1334632	-7
1334983	78
1335328	49
1335689	-40
1336043	-24
1336374	89
1336690	44
1337059	-54
1337377	97
1337764	62
1338125	-40
1338497	26
1338775	4
1339167	-7
1339415	68
1339822	49
1340171	4
1340546	5
1340822	85
1341213	44
1341477	71
1341872	46
1342211	-21
1342586	-20
1342840	-13
1343229	86
1343573	-42
1343939	-13
1344252	-50
1344585	-38
1344898	-68
1345232	59
1345593	-29
1345907	67
1346283	112
1346579	115
1346969	82
1347242	-31
1347640	128
1347929	1
1348325	-78
1348585	75
1348971	-96
1349273	1464
1349553	385
1349812	119
1350093	-145
1350372	-695
1350628	-209
1350990	-630
1351216	533
1351430	-243
1351675	-13
1352029	-54
1352259	122
1352486	-46
1352746	39
1353070	-36
1353393	135
1353718	121
1354013	117
1354351	126
1354644	59
1354958	22
1355283	-10
1355611	5
1355933	-10
1356218	85
1356574	50
1356893	37
1357238	74
1357518	22
1357859	64
1358184	57
1358560	1
1358921	82
1359287	117
1359623	41
1359948	46
1360323	68
1360701	-7
1361032	85
1361415	84
1361759	41
1362124	57
1362495	48
1362869	103
1363218	95
1363568	106
1363896	15
1364277	112
1364635	97
1364992	26
1365376	70
1365750	19
1366122	119
1366481	60
1366829	52
1367162	48
1367476	92
1367849	17
1368219	4
1368594	20
1368860	44
1369261	19
1369572	68
1369965	33
1370323	9
1370716	74
1371002	67
1371413	-10
1371787	68
1372174	48
1372506	77
1372888	-12
1373249	48
1373642	-9
1373996	9
1374389	79
1374753	44
1375127	24
1375504	96
1375880	117
1376217	95
1376552	20
1376883	82
1377240	23
1377560	17
1377906	-17
1378202	-23
1378588	81
1378931	0
1379297	9
1379571	30
1379961	117
1380311	95
1380674	92
1381024	84
1381414	60
1381782	88
1382147	64
1382495	30
1382846	6
1383170	42
1383552	5
1383916	27
1384287	39
1384641	68
1385002	-2
1385307	56
1385695	70
1385952	31
1386344	26
1386689	17
1387066	117
1387368	6
1387739	4
1388069	95
1388437	42
1388763	4
1389101	39
1389430	-3
1389757	64
1390114	74
1390462	26
1390811	111
1391151	114
1391525	13
1391862	31
1392204	52
1392528	33
1392911	-20
1393261	-3
1393624	-14
1393961	16
1394336	20
1394677	20
1395054	57
1395411	17
1395774	50
1396149	78
1396465	84
1396852	73
1397187	50
1397563	19
1397877	78
1398256	81
1398554	16
1398936	53
1399230	96
1399615	63
1399939	107
1400306	37
1400570	38
1400956	-6
1401271	81
1401645	77
1401967	90
1402346	82
1402669	57
1403014	22
1403348	84
1403615	104
1403863	30
1404239	34
1404597	12
1404945	86
1405287	-5
1405649	12
1405955	67
1406326	70
1406676	89
1407024	5
1407392	78
1407734	97
1408123	23
1408486	6
1408852	26
1409151	35
1409544	39
1409897	33
1410285	34
1410609	44
1410992	24
1411330	11
1411712	37
1412048	56
1412437	44
1412761	85
1413136	45
1413487	11
1413849	2
1414133	17
1414530	79
1414876	92
1415229	35
1415552	75
1415937	19
1416287	78
1416591	79
1416959	84
1417234	78
1417650	82
1417994	6
1418396	71
1418758	90
1419141	75
1419521	24
1419897	8
1420256	78
1420630	9
1420996	15
1421354	-2
1421712	38
1422068	68
1422431	70
1422762	-3
1423107	-13
1423469	-9
1423814	53
1424185	46
1424543	75
1424870	34
1425256	44
1425595	28
1425968	4
1426322	24
1426685	5
1426987	93
1427382	68
1427709	38
1428098	34
1428433	85
1428825	42
1429169	48
1429496	19
1429806	73
1430155	-23
1430397	35
1430816	46
1431165	78
1431537	41
1431899	77
1432258	41
1432631	97
1432999	-3
1433325	28
1433698	75
1434036	34
1434397	49
1434759	56
1435120	-23
1435451	77
1435726	71
1435961	37
1436330	180
1436588	111
1436841	41
1437072	-12
1437431	-112
1437732	-3
1438044	-54
1438297	6
1438649	67
1438940	49
1439214	15
1439587	37
1439946	-13
1475571	21593
1476068	-32768
1476092	32767
1485030	-16
1485364	15
1485607	41
1485991	38
1486346	85
1486713	56
1486943	118
1487351	166
1487661	66
1488020	74
1488378	86
1488701	103
1489037	89
1489321	81
1489733	27
1490039	-76
1490433	-108
1490729	-27
1491128	42
1491454	92
1491839	108
1492184	107
1492513	133
1492862	84
1493229	92
1493602	70
1493976	63
1494315	64
1494595	111
1494884	62
1495214	30
1495595	-28
1495934	48
1496295	15
1496653	56
1497003	57
1497377	82
1497751	60
1498122	89
1498478	73
1498861	70
1499227	45
1499618	27
1499977	74
1500361	27
1500727	1
1501097	2
1501466	42
1501819	45
1502200	60
1502558	49
1502955	99
1503326	64
1503661	-335
1503898	264
1504324	-120
1504685	195
1505076	198
1505435	161
1505806	97
1506153	63
1506539	70
1506840	130
1507220	-152
1507578	88
1507950	121
1508303	157
1508667	135
1509028	122
1509382	71
1509735	100
1510070	73
1510432	73
1510774	75
1511135	81
1511384	39
1511770	79
1512131	31
1512459	52
1512832	73
1513183	92
1513584	88
1513953	122
1514344	95
1514719	99
1515107	103
1515422	114
1515722	82
1515994	119
1516374	103
1516662	130
1517029	60
1517333	52
1517684	64
1517918	118
1518293	88
1518642	84
1518927	106
1519293	101
1519633	101
1519965	124
1520307	95
1520634	95
1520975	77
1521274	124
1521632	86
1521984	100
1522362	68
1522713	85
1523066	60
1523432	79
1523778	33
1524112	86
1524471	68
1524840	125
1525215	89
1525587	101
1525966	67
1526323	82
1526698	49
1527043	60
1527390	67
1527741	68
1527967	27
1528190	37
1528426	59
1528805	33
1529162	59
1529463	90
1529797	107
1568326	3136
1568345	1346
1568373	-32768
1568409	-32768
1568437	31933
1568474	6795
1568550	11097
1568657	-17207
1571598	-4121
1601850	2492
1602019	-32768
1603023	7731
1620001	343
1620014	348
1620329	15
1620597	66
1620610	85
1620913	143
1620926	150
1621235	125
1621248	137
1621499	163
1621511	168
1621855	122
1621868	133
1622196	114
1622209	121
1622529	118
1622542	135
1622891	129
1622904	141
1623250	132
1623618	118
1623957	96
1623969	110
1624327	85
1624339	95
1624604	110
1624617	118
1624874	114
1624887	126
1625200	93
1625213	97
1625590	59
1625927	49
1625940	50
1626303	64
1626316	81
1626665	78
1626678	89
1627047	33
1627060	48
1627402	45
1627414	57
1627768	57
1627781	71
1628142	68
1628154	81
1628506	33
1628519	49
1628861	67
1628873	75
1629250	33
1629263	46
1629617	31
1629630	41
1629885	42
1629898	50
1630307	30
1630320	41
1630669	6
1630681	16
1631051	8
1631064	19
1631411	17
1631424	35
1631788	6
1631801	19
1632159	-9
1632172	2
1632533	-46
1632546	-29
1632911	-20
1632924	-9
1633271	-12
1633284	0
1633651	2
1633663	12
1633999	42
1634012	55
1634398	34
1634743	28
1634756	37
1635114	22
1635127	33
1635464	4
1635477	16
1635838	24
1635851	39
1636203	35
1636215	42
1636537	57
1636550	63
1636916	31
1636929	45
1637232	57
1637245	75
1637606	17
1637619	27
1637921	42
1637933	55
1638294	20
1638307	30
1638618	63
1638631	75
1638869	81
1638881	74
1639260	85
1639273	97
1639656	68
1639668	79
1640049	70
1640412	64
1640425	81
1640787	56
1640800	74
1641166	50
1641179	68
1641530	46
1641543	68
1641916	27
1641929	35
1642268	49
1642281	59
1642641	79
1642654	100
1642889	163
1642902	194
1643273	77
1643286	90
1643650	34
1643662	49
1644035	28
1644048	42
1644408	53
1644421	64
1644785	49
1644798	56
1645153	67
1645166	81
1645546	70
1645902	57
1645915	68
1646294	53
1646664	53
1647008	57
1647371	56
1647384	59
1647625	49
1647637	59
1648016	55
1648028	74
1648381	60
1648394	75
1648735	68
1648748	75
1649109	48
1649122	59
1649471	88
1649483	93
1649837	84
1649849	99
1650214	93
1650227	101
1650570	90
1650583	103
1650950	82
1650963	92
1651312	79
1651325	88
1651697	71
1651710	82
1652046	75
1652059	89
1652434	66
1652447	73
1652786	71
1652799	79
1653172	42
1653185	46
1653529	64
1653542	77
1653919	45
1653931	60
1654265	68
1654278	77
1654652	-6
1654665	13
1655003	52
1655016	63
1655379	41
1655392	55
1655728	86
1655741	95
1655976	97
1655988	101
1656386	86
1656399	93
1656752	67
1656765	79
1657140	64
1657153	75
1657524	52
1657536	64
1657907	38
1657920	48
1658272	59
1658285	68
1658658	52
1658671	67
1659011	68
1659024	71
1659401	52
1659414	67
1659760	70
1659773	81
1660118	59
1660130	77
1660391	82
1660404	90
1660783	53
1660796	67
1661114	70
1661127	88
1661495	78
1661508	93
1661858	100
1661871	115
1662211	57
1662224	73
1662583	67
1662596	79
1662954	50
1662967	59
1663279	39
1663292	53
1663685	60
1663697	71
1664051	52
1664063	63
1664428	60
1664441	66
1664795	68
1664808	79
1665169	27
1665182	41
1665419	79
1665431	84
1665833	37
1665846	57
1666203	62
1666216	78
1666594	78
1666607	90
1666966	110
1666978	117
1667351	85
1667364	101
1667726	111
1667738	124
1668104	79
1668116	93
1668462	106
1668475	114
1668833	79
1668846	92
1669200	96
1669213	106
1669584	62
1669597	75
1669957	73
1669970	85
1670308	9
1670321	52
1670687	79
1670700	79
1670932	89
1670944	89
1671343	15
1671356	59
1671720	57
1671733	70
1672115	75
1672128	85
1672480	82
1672493	96
1672873	78
1672886	92
1673249	74
1673262	81
1673641	38
1673654	52
1674015	71
1674028	82
1674404	68
1674417	84
1674781	78
1674794	89
1675158	37
1675171	50
1675538	39
1675551	55
1675901	67
1675914	73
1676288	78
1676301	89
1676647	63
1676660	74
1677026	48
1677039	57
1677375	99
1677388	112
1677611	99
1677624	112
1678003	154
1678015	174
1678250	137
1678263	135
1678660	117
1678673	124
1679030	74
1679043	88
1679422	79
1679435	92
1679797	77
1679810	84
1680196	78
1680209	90
1680503	92
1680516	99
1680917	75
1680929	84
1681281	70
1681294	84
1681677	56
1681690	74
1682046	88
1682059	99
1682424	28
1682437	42
1682799	64
1682812	78
1683175	20
1683188	37
1683545	77
1683558	90
1683940	53
1683953	68
1684319	50
1684332	62
1684683	55
1684696	66
1685076	55
1685089	68
1685438	42
1685451	59
1685803	56
1685816	67
1686082	44
1686095	53
1686480	45
1686493	52
1686845	56
1686858	66
1687227	45
1687239	55
1687579	75
1687592	82
1687959	52
1687972	56
1688321	68
1688334	75
1688681	49
1688694	59
1689052	86
1689065	96
1689446	42
1689458	55
1689821	68
1689834	85
1690219	48
1690232	67
1690605	66
1690618	77
1690991	37
1691004	59
1691387	71
1691400	90
1691762	82
1691775	99
1692166	63
1692179	77
1692544	70
1692557	79
1692883	27
1692896	49
1693257	70
1693270	81
1693651	50
1693664	59
1694017	39
1694030	53
1694398	59
1694411	70
1694769	34
1694782	55
1695141	56
1695154	66
1695520	34
1695533	52
1695895	52
1695908	62
1696278	56
1696291	68
1696657	84
1696669	92
1697022	45
1697035	62
1697376	71
1697389	82
1697663	48
1697675	53
1698036	60
1698049	79
1698327	64
1698340	77
1698708	59
1698720	68
1699057	60
1699070	73
1699438	46
1699450	63
1699725	60
1699737	64
1700115	66
1700128	78
1700475	49
1700488	64
1700850	41
1700863	59
1701119	70
1701132	73
1701529	16
1701542	22
1701770	46
1701783	62
1702173	38
1702186	48
1702566	66
1702579	73
1702962	71
1702975	92
1703315	31
1703327	48
1703541	81
1703554	103
1703756	139
1703769	140
1704186	50
1704524	57
1704537	71
1704932	23
1704944	37
1705337	60
1705349	73
1705728	28
1705740	45
1706090	59
1706103	79
1706486	44
1706499	60
1706868	63
1706880	71
1707238	27
1707251	38
1707630	45
1707643	64
1707986	46
1707999	57
1708378	50
1708391	57
1708737	67
1708750	84
1709131	49
1709144	63
1709485	56
1709497	74
1709865	41
1709877	60
1713869	3568
1714144	2025
1714179	-32768
1714302	32767
1745497	-32768
1778779	32767
1778791	-12999
1778810	-12757
1778819	32767
1778828	-6134
1778877	-32768
1778956	-13766
1778992	32767
1779087	-16547
1779097	-21116
1779108	32767
1818629	1096
1818642	-1384
1845616	2190
1845683	1238
1845751	-87
1845764	898
1845901	-39
1846242	2046
1846518	1882
1846853	1117
1847086	-221
1847326	128
1848083	-2255
1848345	-3327
1848429	-5082
1848725	-4114
1849072	-2796
1849433	-1989
1849763	-1286
1850108	-1004
1850383	-745
1850750	-848
1851061	-710
1851422	-375
1851784	-105
1852137	-188
1852473	-181
1852816	-145
1853160	-136
1853504	-36
1853828	-437
1854111	-403
1854432	-421
1854783	-46
1855108	-42
1855420	-395
1855720	-133
1856011	-49
1856312	92
1856641	-228
1856949	-233
1857235	-134
1857548	140
1857889	-35
1858222	-82
1858536	9
1858789	-107
1859036	-247
1859293	-153
1859668	-284
1859985	-754
1860315	-532
1860586	-28
1860832	114
1861064	180
1861442	241
1861768	264
1862051	-10
1862361	52
1862610	188
1862974	187
1863293	243
1863649	216
1863906	132
1864162	162
1864533	195
1864780	227
1865027	212
1865333	157
1865695	231
1866038	332
1866370	239
1866695	195
1867008	144
1867312	-268
1867579	-286
1867945	-56
1868264	117
1868550	177
1868800	38
1869181	63
1869435	144
1869818	59
1870135	135
1870505	152
1870805	137
1871153	-151
1871473	8
1871833	63
1872111	-273
1872387	-359
1872646	-64
1873024	9
1873336	-198
1873690	-368
1874010	39
1874338	191
1874622	304
1874995	276
1875271	279
1875565	213
1875927	230
1876252	169
1876518	-145
1876891	-282
1877220	11
1877562	128
1877878	214
1878221	252
1878555	155
1878856	216
1879197	84
1879477	68
1879714	-986
1879954	-1031
1880208	-149
1880472	462
1880649	3136
1880704	756
1880751	862
1880761	785
1880812	314
1880964	-108
1881031	2280
1881063	2011
1881318	-290
1881567	-476
1881828	-410
1882156	-410
1882400	-279
1882654	-280
1882934	-145
1883267	-108
1883608	-23
1883941	35
1884279	75
1884541	146
1884912	108
1885188	95
1885568	249
1885902	198
1886265	15
1886530	5
1886913	38
1887228	101
1887611	135
1887949	148
1888330	12
1888617	44
1889011	-18
1889264	-50
1889662	191
1889902	128
1890177	-25
1890551	17
1890895	55
1891135	26
1891390	6
1891754	85
1892062	112
1892383	11
1892616	-85
1892997	162
1893279	223
1893650	95
1893904	90
1894208	132
1894582	77
1894966	95
1895330	-42
1895705	88
1896062	154
1896414	143
1896759	135
1897085	122
1897428	90
1897728	135
1898097	86
1898348	137
1898620	122
1899014	-21
1899298	86
1899691	27
1900052	67
1900436	15
1900789	-3
1901145	52
1901396	95
1901777	59
1902078	125
1902462	111
1902764	107
1903147	132
1903500	77
1903876	77
1904197	89
1904570	141
1904867	74
1905241	26
1905542	73
1905900	73
1906225	73
1906548	77
1906883	0
1907192	-20
1907505	4
1907770	111
1908146	90
1908402	108
1908789	52
1909124	73
1909481	90
1909763	99
1910130	9
1910456	-64
1910810	27
1911151	71
1911487	62
1911802	92
1912125	75
1912452	37
1912784	56
1913128	81
1913460	111
1913779	39
1914086	2334
1914329	1110
1914575	790
1914956	432
1915283	172
1915535	1
1915888	-204
1916233	-191
1916577	-214
1916904	-127
1917227	-120
1917571	-109
1917900	-140
1918268	-42
1918557	95
1918940	60
1919286	-34
1919654	5
1919920	86
1920301	100
1920637	89
1920999	56
1921268	11
1921534	20
1921802	146
1922042	144
1922430	117
1922753	41
1923100	12
1923435	67
1923763	64
1924097	111
1924417	64
1924734	66
1925046	-91
1925367	-29
1925691	53
1926067	62
1926420	46
1926749	44
1927094	13
1927414	24
1927755	28
1928095	82
1928441	195
1928774	95
1929102	-2
1929427	-122
1929741	-50
1930086	6
1930372	27
1930755	4
1931021	11
1931387	-187
1931740	64
1932066	38
1932449	-2
1932713	5
1933094	28
1933446	5
1933793	-16
1934106	35
1934451	64
1934785	27
1935136	26
1935455	115
1935791	46
1936100	44
1936409	162
1936776	70
1937044	9
1937290	26
1937538	88
1937929	-27
1938252	-60
1938587	-24
1938870	-64
1939239	-42
1939564	-21
1939907	9
1940232	68
1940550	135
1940882	95
1941215	1
1941578	48
1941912	78
1942282	37
1942629	89
1942985	13
1943234	45
1943480	-68
1943827	44
1944178	52
1944535	-53
1944859	4
1945190	26
1945506	77
1945867	73
1946206	20
1946564	39
1946844	73
1947224	63
1947547	73
1947916	52
1948250	23
1948587	27
1948903	-10
1949238	26
1949544	68
1949855	95
1950209	57
1950521	41
1950901	27
1951178	8
1951569	-96
1951921	31
1952291	89
1952606	63
1952999	86
1953327	60
1953716	63
1954031	85
1954412	74
1954694	41
1955089	33
1955411	107
1955792	-2
1956119	73
1956510	8
1956836	75
1957195	75
1957501	-14
1957822	35
1958150	49
1958497	78
1958865	57
1959205	52
1959545	-2
1959845	-63
1960172	26
1960411	325
1960635	-180
1961035	-137
1961299	-192
1961678	-96
1961999	-6
1962367	33
1962681	4
1963044	-17
1963372	44
1963727	37
1964016	52
1964392	55
1964763	68
1965126	56
1965448	53
1965837	15
1966208	37
1966585	201
1966817	86
1967088	37
1967474	-18
1967814	-16
1968070	-34
1968318	53
1968681	63
1968998	70
1969266	67
1969648	78
1969994	78
1970348	48
1970683	59
1971041	35
1971308	64
1971708	46
1972058	52
1972424	26
1972780	70
1973151	77
1973522	55
1973824	165
1974188	187
1974543	95
1974899	86
1975200	125
1975570	90
1975836	78
1976223	41
1976492	79
1976748	117
1977145	59
1977494	125
1977854	75
1978211	90
1978547	93
1978913	33
1979263	26
1979630	55
1988902	-2117
1988914	32767
1988932	5251
1988939	-7272
1988956	32767
1988995	-6807
1989019	32767
1989055	-16348
1992726	-13226
1996418	-63
1997524	-3886
1997540	-12351
1997561	32767
2041909	-914
2041930	-5983
2041951	2864
2082678	-32768
2082718	32767
2082749	-32768
2082806	-32768
2082824	-24169
2088507	32258
2121628	1340
2160094	126
2160107	137
2160460	106
2160473	111
2160838	125
2160851	135
2161233	115
2161246	128
2161617	49
2161629	49
2161987	41
2161999	42
2162377	60
2162741	62
2163106	74
2163473	92
2163823	85
2164098	75
2164474	82
2164717	82
2164730	78
2165120	95
2165133	97
2165370	70
2165382	63
2165791	66
2165804	70
2166157	73
2166169	88
2166567	55
2166580	68
2166932	79
2166945	85
2167328	26
2167341	31
2167699	49
2167711	66
2168065	79
2168077	86
2168449	70
2168461	73
2168824	73
2168837	86
2169218	70
2169231	79
2169578	84
2169591	92
2169958	110
2169971	124
2170332	133
2170688	103
2171034	126
2171380	89
2171726	96
2172088	64
2172425	44
2172768	11
2173100	-5
2173409	48
2173422	55
2173792	35
2174016	59
2174028	70
2174432	67
2174803	67
2174816	71
2175205	79
2175217	75
2175465	137
2175477	140
2175907	119
2176282	119
2176295	126
2176686	92
2176699	93
2177059	111
2177072	110
2177470	110
2177823	110
2177836	114
2178219	99
2178607	57
2178979	71
2179328	99
2179674	103
2180041	70
2180392	77
2180751	63
2181138	79
2181489	68
2181873	96
2182242	52
2182596	56
2182609	67
2183001	48
2183279	100
2183292	110
2183540	88
2183553	82
2183811	124
2183824	115
2184248	88
2184633	82
2184970	50
2184983	64
2185348	41
2185682	79
2185695	97
2186084	67
2186430	104
2186442	112
2186819	95
2187156	128
2187169	136
2187528	100
2187878	137
2188209	107
2188494	125
2188507	125
2188928	27
2189311	84
2189324	82
2189753	49
2190137	33
2190150	39
2190553	0
2190898	57
2190911	64
2191289	64
2191648	114
2191661	125
2192064	118
2192421	169
2192434	169
2192816	140
2193185	129
2193543	121
2193931	85
2194285	97
2194298	108
2194684	75
2194997	122
2195010	129
2195386	148
2195750	55
2196072	71
2196084	75
2196463	70
2196777	77
2196790	78
2197159	106
2197444	92
2197813	137
2198165	66
2198511	82
2198836	50
2199183	68
2199196	81
2199571	11
2199905	60
2199918	62
2200308	28
2200569	45
2200795	77
2200808	75
2201224	84
2201600	81
2201612	86
2202034	9
2202401	92
2202414	110
2202814	44
2203164	84
2203177	97
2203559	79
2203890	146
2203903	150
2204163	100
2204520	128
2204533	128
2204917	77
2205241	63
2205254	66
2205615	41
2205628	41
2205942	99
2205955	104
2206302	55
2206596	107
2206609	107
2206970	56
2206983	49
2207309	9
2207322	12
2207677	28
2207690	38
2208040	37
2208298	67
2208310	59
2208676	82
2208688	89
2208950	63
2208962	66
2209273	140
2209286	152
2209660	42
2209673	48
2209998	121
2210010	118
2210395	9
2210407	13
2210707	101
2210719	111
2211108	8
2211120	12
2211482	139
2211495	143
2211884	46
2211897	64
2212271	126
2212283	125
2212670	35
2212682	42
2213021	154
2213034	157
2213432	66
2213445	70
2213799	111
2213812	121
2214205	42
2214532	92
2214545	100
2214933	62
2214946	57
2215257	70
2215270	68
2215648	62
2215660	59
2216000	8
2216012	15
2216363	57
2216376	66
2216694	74
2216707	66
2217002	117
2217015	118
2217363	111
2217376	115
2217657	84
2217670	81
2217996	101
2218009	110
2218318	57
2218330	66
2218645	107
2218658	114
2218966	66
2218978	60
2219243	95
2219255	93
2219631	70
2219922	110
2219934	115
2220292	90
2220304	89
2220611	17
2220624	31
2220913	70
2220925	77
2221303	42
2221534	77
2221546	84
2221934	86
2221947	82
2222249	52
2222262	50
2222584	104
2222596	110
2222993	20
2223005	15
2223313	90
2223325	96
2223702	99
2223715	99
2224040	115
2224053	119
2224422	100
2224675	100
2224687	97
2225087	31
2225100	42
2225456	125
2225469	128
2225832	56
2225845	59
2226201	70
2226214	77
2226545	33
2226558	42
2226921	11
2226934	15
2227273	99
2227286	101
2227671	86
2227974	84
2227987	95
2228352	35
2228365	38
2228655	6
2228667	8
2229031	78
2229044	88
2229397	71
2229410	82
2229747	125
2229760	130
2230089	75
2230102	79
2230418	86
2230430	86
2230776	70
2230789	74
2231094	114
2231107	118
2231454	81
2231466	84
2231776	66
2231789	73
2232095	70
2232108	60
2232414	78
2232427	82
2232740	146
2232753	143
2233106	101
2233119	100
2233431	137
2233444	139
2233750	106
2233763	110
2234115	6
2234416	50
2234429	60
2234677	99
2234689	103
2235079	84
2235092	88
2235461	22
2235738	67
2235751	60
2236164	12
2236177	24
2236545	52
2236558	55
2236967	15
2236980	16
2237341	128
2237353	133
2237738	42
2237751	42
2238087	100
2238100	104
2238490	34
2238503	38
2238837	96
2238850	97
2239229	55
2239242	55
2239593	38
2239606	34
2239879	28
2239892	28
2240294	117
2240306	115
2240652	78
2240665	74
2240971	90
2240984	97
2241292	79
2241305	90
2241598	100
2241610	101
2241941	60
2242194	84
2242207	84
2242464	146
2242477	136
2242717	68
2242730	67
2243125	90
2243138	112
2243547	-13
2243560	-3
2243939	108
2243952	111
2244345	17
2244358	28
2244722	108
2244735	111
2245107	6
2245120	15
2245469	-5
2245482	-3
2245848	23
2245860	20
2246204	77
2246217	78
2246585	50
2246598	59
2246944	90
2246957	103
2247318	28
2247331	35
2247643	96
2247656	104
2248060	78
2248073	84
2248417	143
2248430	146
2248805	50
2248818	56
2249146	75
2249159	79
2249520	53
2249533	48
2249893	99
2249906	110
2250267	84
2250518	86
2250531	89
2250927	71
2250939	73
2251298	12
2251311	17
2251681	5
2251694	-3
2252033	63
2252046	75
2252421	63
2252434	66
2252784	67
2252797	70
2253174	38
2253186	33
2253534	97
2253547	101
2253870	103
2253883	117
2254225	88
2254238	89
2254603	114
2254615	115
2255019	33
2255032	39
2255401	85
2255414	77
2255811	67
2255824	74
2256195	111
2256208	115
2256568	85
2256581	77
2256925	59
2256937	60
2257305	55
2257318	59
2257583	56
2257596	49
2257988	31
2258001	45
2258358	59
2258371	56
2258776	5
2258788	17
2259118	45
2259131	48
2259526	48
2259539	57
2259908	101
2259921	100
2260313	64
2260325	73
2260673	82
2260685	82
2261059	60
2261072	66
2261435	119
2261448	117
2261822	77
2261835	81
2262172	103
2262184	104
2262577	31
2262917	70
2262929	67
2263274	78
2263287	88
2263541	90
2263554	89
2263946	75
2263958	78
2264321	34
2264334	38
2264588	46
2264601	38
2264987	68
2265000	73
2265342	73
2265354	79
2265734	44
2265747	44
2265982	103
2265995	101
2266401	45
2266413	52
2266764	101
2266777	115
2267153	92
2267166	97
2267503	115
2267516	124
2267891	70
2267904	66
2268230	17
2268243	20
2268616	46
2268629	48
2268989	64
2269309	68
2269322	82
2269679	77
2269952	81
2269965	78
2270324	60
2270337	64
2270630	39
2270643	39
2270907	99
2270920	104
2271168	114
2271401	99
2271413	96
2271842	63
2271855	4
2272133	100
2272146	111
2272383	172
2272396	159
2272798	139
2272811	140
2273197	56
2273210	59
2273620	45
2273632	45
2274052	59
2274065	59
2274459	89
2274472	86
2274878	39
2275254	38
2275267	35
2275665	33
2275678	35
2276039	56
2276052	66
2276435	62
2276448	63
2276804	71
2276817	64
2277181	77
2277194	79
2277547	107
2277839	84
2277852	93
2278231	128
2278244	135
2278598	84
2278611	85
2278987	135
2278999	141
2279365	93
2279688	112
2279701	124
2280073	68
2280348	60
2280360	68
2280751	34
2281018	55
2281031	57
2281433	88
2281446	88
2281790	48
2282086	50
2282099	53
2282473	55
2282486	57
2282736	89
2282749	99
2283149	64
2283161	63
2283518	67
2283531	64
2283927	42
2283939	49
2284292	39
2284305	45
2284670	64
2284683	70
2285079	62
2285424	62
2285437	70
2285830	88
2285843	84
2286190	79
2286202	78
2286560	55
2286573	66
2286939	74
2287270	90
2287283	93
2287674	64
2287928	68
2287941	70
2288333	125
2288345	128
2288686	89
2288698	95
2289047	95
2289060	99
2289437	12
2289450	8
2289745	2
2289758	4
2290141	56
2290154	55
2290506	35
2290801	68
2290814	75
2291187	39
2291422	60
2291435	64
2291675	132
2291687	126
2292117	27
2292480	165
2292493	163
2292907	96
2292920	99
2293285	88
2293298	89
2293684	19
2293697	16
2294041	92
2294054	96
2294438	90
2294451	88
2294811	17
2294824	26
2295181	38
2295193	46
2295577	45
2295905	75
2295917	81
2296302	86
2296315	95
2296665	60
2296947	81
2296960	78
2297378	71
2297623	85
2297635	77
2298038	38
2298051	44
2298433	67
2298446	71
2298873	77
2299237	112
2299250	114
2299655	78
2299668	78
2300011	107
2300024	108
2300396	73
2300409	73
2300704	53
2300717	50
2301086	62
2301099	62
2301479	44
2301736	68
2301749	64
2302151	96
2302164	99
2302501	45
2302513	42
2302861	70
2302874	68
2303228	34
2303241	33
2303564	89
2303577	88
2303931	63
2304177	93
2304190	92
2304558	73
2304571	73
2304911	46
2305210	90
2305222	100
2305593	108
2305874	89
2305886	86
2306252	56
2306587	62
2306599	60
2306972	63
2307237	90
2307249	84
2307645	84
2307658	96
2308019	59
2308032	62
2308381	63
2308394	59
2308786	70
2309110	34
2309123	37
2309519	77
2309846	70
2309859	62
2310230	56
2310243	60
2310594	56
2310607	67
2310926	35
2310939	41
2311344	68
2311681	75
2311694	82
2312084	41
2312097	45
2312459	75
2312472	85
2312808	112
2312821	106
2313201	63
2313537	59
2313550	53
2313917	37
2313930	38
2314307	59
2314658	92
2314670	96
2315044	55
2315375	56
2315387	57
2315776	31
2316084	35
2316097	37
2316492	53
2316505	60
2316771	119
2316784	118
2317064	118
2317077	110
2317487	53
2317820	33
2317833	44
2318104	84
2318117	81
2318497	86
2318510	82
2318910	81
2318923	81
2319283	71
2319296	71
2319713	70
2319997	84
2320010	85
2320410	64
2320423	62
2320813	85
2320826	89
2321208	99
2321220	104
2321605	31
2321618	31
2321986	129
2321999	130
2322392	64
2322405	62
2322760	107
2322773	114
2323104	67
2323440	73
2323452	70
2323849	44
2323862	45
2324220	48
2324233	44
2324597	46
2324610	59
2324849	85
2324861	88
2325086	140
2325099	143
2325349	170
2325361	165
2325761	108
2325773	111
2326168	106
2326181	107
2326575	45
2326588	48
2326971	108
2326984	115
2327365	57
2327718	46
2327731	50
2328102	92
2328114	97
2328475	82
2328820	82
2328833	90
2329191	70
2329204	78
2329533	46
2329546	50
2329901	59
2329914	59
2330225	75
2330476	93
2330489	88
2330894	66
2330906	71
2331244	188
2331256	197
2331629	230
2331642	232
2331909	163
2331922	158
2332321	190
2332334	187
2332697	136
2333068	136
2333080	139
2333439	158
2333452	170
2333753	187
2333766	191
2334153	152
2334430	150
2334443	151
2334831	115
2334844	121
2335212	106
2335541	111
2335554	111
2335920	184
2336192	150
2336205	157
2336599	101
2336939	9
2336952	15
2337331	39
2337615	318
2337628	318
2338000	265
2338013	274
2338370	84
2338684	-46
2338697	-54
2339069	-180
2339347	-141
2339359	-142
2339710	-115
2339722	-116
2340052	-113
2340347	-47
2340360	-46
2340724	-29
2340737	-17
2341009	27
2341021	26
2341383	23
2341396	23
2341741	1
2342083	5
2342096	6
2342481	-16
2342771	15
2342784	15
2343174	39
2343465	44
2343478	50
2343860	38
2343873	41
2344209	31
2344222	34
2344605	16
2344617	17
2344956	48
2344969	55
2345332	46
2345345	42
2345681	53
2345694	60
2346073	50
2346086	52
2346363	73
2346376	71
2346784	56
2346797	55
2347126	53
2347139	60
2347524	46
2347536	52
2347864	64
2347877	64
2348235	44
2348248	45
2348605	38
2348618	44
2348952	41
2348965	39
2349351	86
2349364	85
2349703	63
2349716	67
2350067	265
2350080	274
2350433	253
2350746	296
2350759	290
2351111	121
2351124	122
2351404	19
2351417	15
2351762	-5
2351774	-9
2352134	-51
2352451	16
2352464	11
2352842	8
2353117	38
2353130	41
2353486	45
2353499	48
2353786	305
2353798	307
2354197	268
2354210	263
2354459	192
2354472	179
2354883	28
2354896	13
2355157	-43
2355170	-45
2355566	5
2355579	2
2355940	-87
2355953	-86
2356334	-49
2356347	-40
2356703	26
2356715	30
2357101	26
2357114	22
2357458	-2
2357471	2
2357841	89
2357854	106
2358218	210
2358555	166
2358567	157
2358925	92
2358938	97
2359262	55
2359275	66
2359632	55
2359645	57
2359975	-20
2359988	-18
2360327	1
2360339	11
2360682	-3
2360938	73
2360951	73
2361316	128
2361329	143
2361669	361
2361682	369
2361978	381
2361991	380
2362319	176
2362332	174
2362659	111
2362672	103
2363035	-56
2363321	-97
2363334	-108
2363704	-76
2363716	-72
2363998	-34
2364011	-29
2364387	158
2364400	169
2364752	194
2364765	213
2365059	542
2365072	547
2365468	366
2365481	354
2365851	52
2365864	45
2366266	-140
2366612	-174
2366625	-177
2367002	-160
2367015	-158
2367358	-101
2367371	-98
2367750	-42
2368085	22
2368097	16
2368482	-12
2368495	-16
2368839	17
2368851	20
2369215	31
2369228	33
2369558	5
2369836	67
2369848	62
2370249	5
2370262	2
2370611	74
2370623	100
2371012	522
2371343	570
2371356	558
2371727	227
2372015	49
2372028	41
2372395	-133
2372654	-113
2372667	-109
2373037	-105
2373049	-109
2373331	-51
2373344	-60
2373703	-83
2373716	-69
2374056	-68
2374069	-60
2374419	-35
2374432	-29
2374773	-3
2375087	20
2375100	19
2375457	34
2375701	49
2375714	42
2375969	60
2375982	50
2376362	201
2376375	223
2376778	490
2376791	478
2377166	254
2377178	245
2377583	5
2377596	-6
2377946	-47
2377959	-50
2378349	-115
2378362	-105
2378714	-9
2378727	-3
2379116	-53
2379129	-49
2379421	-39
2379434	-46
2379828	4
2379841	6
2380217	33
2380567	37
2380580	41
2380962	12
2381284	24
2381297	34
2381682	22
2382001	82
2382014	92
2382417	55
2382430	56
2382677	74
2382690	67
2383075	467
2383088	468
2383452	341
2383465	336
2383841	177
2383853	174
2384187	67
2384200	73
2384547	16
2384560	16
2384942	-116
2385238	-94
2385251	-89
2385656	0
2385990	486
2386003	496
2386395	223
2386691	70
2386704	66
2387098	-98
2387432	-68
2387444	-61
2387825	-64
2388180	421
2388523	208
2388876	121
2389160	46
2389173	48
2389554	450
2389859	443
2389872	431
2390259	163
2390596	-34
2390959	581
2391277	383
2391617	93
2391630	89
2391997	-195
2392327	-226
2392340	-218
2392734	-170
2393056	-147
2393068	-141
2393457	-111
2393729	-100
2393742	-93
2394144	-13
2394461	-25
2394474	-27
2394845	2
2395135	500
2395148	596
2395443	914
2395456	927
2395712	661
2395942	705
2395954	688
2396191	744
2396416	600
2396428	592
2396648	509
2396660	493
2396878	308
2396891	290
2397109	115
2397122	128
2397339	-207
2397351	-213
2397604	-238
2397616	-242
2398027	-244
2398040	-242
2398399	-209
2398411	-210
2398782	-89
2398795	-76
2399161	-58
2399519	-61
2399532	-60
2399909	41
2400280	294
2400647	895
2400985	381
2401332	37
2401683	-188
2402017	-214
2402030	-217
2402409	-226
2402715	-192
2402727	-196
2403108	-113
2403427	-102
2403787	-3
2404144	16
2404426	48
2404438	49
2404826	715
2405123	381
2405459	476
2405472	483
2405852	270
2406171	107
2406184	99
2406556	-78
2406881	-215
2407213	-67
2407553	369
2407836	136
2407849	121
2408230	103
2408576	101
2408919	-75
2409225	-184
2409238	-182
2409627	-182
2409963	-184
2410284	-67
2410297	-40
2410680	170
2411015	81
2411028	75
2411404	-17
2411685	39
2411698	39
2412090	23
2412368	-16
2412581	485
2412593	498
2412792	750
2412805	749
2413049	701
2413061	687
2413474	403
2413486	385
2413905	92
2413918	90
2414296	-74
2414309	-82
2414712	-218
2415076	-221
2415089	-218
2415499	-209
2415876	-171
2416273	-65
2416658	-24
2417010	11
2417023	15
2417413	-9
2417764	48
2418142	20
2418504	27
2418809	-6
2418821	-6
2419205	-45
2419516	-16
2419528	-6
2419911	-14
2420189	162
2420202	174
2420590	438
2420925	275
2420937	265
2421279	197
2421292	194
2421643	50
2421954	67
2421967	75
2422338	0
2422623	-90
2422635	-80
2423018	9
2423330	26
2423706	321
2424064	395
2424381	195
2424394	186
2424774	78
2425082	5
2425095	1
2425459	-40
2425755	-10
2426075	114
2426088	115
2426461	325
2426722	241
2426735	228
2427118	35
2427471	-107
2427785	-23
2427798	6
2428158	234
2428414	64
2428427	57
2428820	330
2429073	476
2429086	474
2429461	235
2429473	220
2429823	610
2430183	439
2430196	421
2430558	52
2430571	41
2430916	-61
2430928	-63
2431280	-202
2431293	-213
2431604	-171
2431617	-162
2431980	248
2431993	243
2432319	118
2432332	118
2432700	544
2432713	560
2433038	440
2433051	447
2433408	197
2433421	192
2433779	-5
2434106	-65
2434119	-71
2434459	70
2434472	95
2434792	311
2434804	301
2435128	139
2435140	144
2435489	2
2435757	-17
2435770	-16
2436157	163
2436170	165
2436443	432
2436456	436
2436826	599
2436839	591
2437189	354
2437491	177
2437503	173
2437862	217
2437874	217
2438198	79
2438506	68
2438519	86
2438874	436
2438887	434
2439204	213
2439217	209
2439574	198
2439586	202
2439868	563
2439880	581
2440264	801
2440584	1191
2440596	1186
2440936	767
2440949	744
2441277	558
2441290	567
2441678	651
2441690	637
2442041	126
2442054	103
2442423	-18
2442436	-10
2442779	119
2442791	135
2443125	-9
2443138	-13
2443514	-170
2443526	-175
2443864	-170
2443877	-169
2444243	-251
2444256	-251
2444606	-279
2444619	-287
2444983	-249
2444996	-243
2445324	213
2445337	304
2445710	198
2445723	181
2446058	-80
2446070	-86
2446416	-214
2446429	-214
2446749	-229
2446762	-226
2447113	-215
2447126	-213
2447455	-228
2447468	-226
2447781	-209
2447794	-206
2448145	-174
2448158	-164
2448454	-64
2448467	-64
2448821	308
2448833	332
2449162	347
2449175	352
2449454	157
2449466	141
2449840	27
2449853	24
2450152	336
2450164	338
2450480	150
2450492	141
2450839	-38
2450852	-34
2451117	-91
2451130	-100
2451518	307
2451530	322
2451833	581
2451846	569
2452210	-10
2452222	-25
2452501	-156
2452513	-163
2452870	-162
2452883	-169
2453247	-136
2453259	-129
2453573	-97
2453586	-94
2453960	-79
2453973	-78
2454314	-94
2454327	-96
2454703	-16
2454716	-7
2455040	8
2455053	1
2455422	-17
2455435	-7
2455786	453
2455799	567
2456179	402
2456192	384
2456533	44
2456545	33
2456911	231
2456924	228
2457238	77
2457251	77
2457564	11
2457577	11
2457860	293
2457873	299
2458185	462
2458198	453
2458578	60
2458591	48
2458920	-75
2458933	-78
2459288	-200
2459301	-191
2459593	-180
2459606	-182
2459933	201
2459946	235
2460299	169
2460312	162
2460702	-142
2461036	-231
2461049	-229
2461411	92
2461424	89
2461740	216
2461753	221
2462107	152
2462120	152
2462394	95
2462407	95
2462743	-12
2462755	-14
2463077	114
2463090	119
2463416	62
2463429	57
2463781	42
2463793	41
2464099	0
2464112	1
2464476	163
2464488	195
2464772	400
2464784	394
2465153	89
2465165	74
2465492	-5
2465505	-5
2465844	64
2465857	77
2466211	186
2466549	34
2466561	26
2466912	39
2466925	39
2467200	-17
2467213	-29
2467581	-64
2467594	-51
2467871	-2
2467884	-5
2468245	4
2468258	2
2468597	17
2468609	24
2468925	241
2468938	241
2469279	239
2469292	241
2469607	464
2469620	461
2469955	322
2469968	311
2470304	159
2470317	162
2470682	203
2470935	479
2470947	472
2471323	248
2471336	248
2471654	108
2471667	106
2472016	246
2472029	259
2472357	297
2472369	300
2472719	146
2472731	137
2473036	46
2473049	52
2473409	62
2473421	70
2473759	106
2473771	108
2474100	245
2474113	248
2474458	208
2474471	201
2474733	424
2474745	445
2475132	418
2475440	217
2475796	101
2476169	48
2476524	344
2476879	135
2477188	74
2477201	71
2477577	-18
2477896	62
2477909	71
2478291	107
2478630	49
2479004	217
2479345	57
2479712	66
2480069	52
2480392	-47
2480404	-47
2480785	-39
2481050	23
2481063	24
2481447	365
2481745	191
2481758	188
2482083	210
2482443	31
2482801	-57
2483144	166
2483409	403
2483667	319
2483680	303
2484071	147
2484303	287
2484315	286
2484525	446
2484537	451
2484760	250
2484993	64
2485006	59
2485438	4
2485450	13
2485824	270
2485837	271
2486229	260
2486242	246
2486609	22
2486985	177
2487355	195
2487699	-20
2487712	-18
2488108	-104
2488435	-64
2488819	502
2489146	293
2489497	73
2489510	73
2489909	19
2490255	56
2490268	70
2490661	329
2490967	4
2490979	-9
2491368	4
2491742	-3
2492072	-53
2492085	-57
2492459	-83
2492732	-82
2492745	-78
2493137	-63
2493486	78
2493793	60
2493806	60
2494159	8
2494448	-9
2494461	-5
2494844	57
2495152	-16
2495513	121
2495875	212
2496196	141
2496209	122
2496585	-42
2496896	-72
2496909	-74
2497286	-39
2497615	110
2497937	296
2497950	308
2498311	152
2498621	-113
2498987	-131
2499291	38
2499580	285
2499593	310
2499986	49
2500247	-57
2500260	-64
2500624	95
2500637	119
2500966	304
2501247	81
2501260	79
2501626	100
2501880	154
2501893	158
2502140	318
2502152	330
2502413	358
2502426	340
2502696	118
2502709	107
2503138	28
2503499	1
2503512	11
2503918	34
2504289	49
2504656	95
2505036	237
2505378	20
2505390	15
2505776	-24
2506121	-5
2506495	228
2506794	129
2506807	126
2507182	74
2507504	282
2507859	143
2508182	44
2508564	-14
2508876	1
2509201	228
2509214	248
2509571	136
2509877	-82
2509890	-85
2510262	-90
2510528	24
2510541	16
2510931	-17
2511235	27
2511248	37
2511624	-2
2511923	55
2511935	60
2512320	161
2512634	141
2512990	124
2513003	129
2513373	67
2513724	30
2514095	75
2514374	108
2514386	114
2514776	90
2515115	345
2515460	231
2515819	129
2516122	163
2516480	110
2516787	64
2516800	67
2517150	56
2517404	95
2517417	95
2517652	173
2517664	181
2517938	217
2518170	198
2518182	183
2518592	-42
2518605	-45
2518978	2
2518991	6
2519378	154
2519727	121
2520085	79
2520097	86
2520435	128
2520447	125
2520802	85
2520814	78
2521151	57
2521164	56
2521518	15
2521531	15
2521853	82
2521865	93
2522217	78
2522230	68
2522494	-25
2522507	-28
2522872	-60
2522885	-46
2523241	45
2523571	16
2523584	20
2523935	224
2523948	243
2524229	112
2524242	104
2524612	-34
2524624	-27
2524897	-7
2524910	-3
2525268	146
2525281	168
2525590	235
2525603	225
2525938	11
2525951	5
2526325	-71
2526338	-61
2526652	110
2526665	110
2527054	-9
2527067	-3
2527384	275
2527397	274
2527787	78
2527800	75
2528118	12
2528131	2
2528491	16
2528504	24
2528858	44
2528871	49
2529197	-2
2529210	-3
2529570	-68
2529883	-39
2529896	-39
2530258	-24
2530270	-23
2530561	27
2530573	37
2530936	471
2530949	474
2531263	74
2531275	62
2531635	-74
2531648	-82
2531948	-65
2531961	-69
2532351	-28
2532364	-28
2532651	30
2532664	35
2533035	90
2533048	97
2533390	128
2533403	132
2533724	402
2533737	424
2534077	213
2534359	-14
2534371	-25
2534736	-113
2534749	-112
2535102	-79
2535382	214
2535395	230
2535747	191
2535760	186
2536032	-31
2536045	-35
2536414	-9
2536427	22
2536777	358
2537042	398
2537055	396
2537284	192
2537297	180
2537568	-89
2537580	-109
2537931	-64
2537944	-61
2538310	399
2538322	406
2538569	264
2538582	238
2538826	8
2538839	-7
2539208	16
2539220	13
2539599	133
2539612	150
2539954	359
2539967	362
2540338	100
2540351	95
2540702	-32
2540715	-42
2541036	96
2541048	103
2541432	75
2541445	73
2541749	19
2541761	20
2542145	158
2542158	180
2542500	223
2542512	212
2542871	11
2542884	4
2543238	-25
2543577	27
2543590	27
2543954	99
2544259	74
2544272	67
2544625	406
2544638	412
2544967	245
2544980	231
2545283	22
2545296	11
2545627	-68
2545640	-61
2545898	13
2545911	23
2546279	225
2546292	214
2546618	-54
2546630	-50
2546989	-76
2547002	-83
2547373	-28
2547386	-21
2547730	84
2547742	89
2548054	13
2548067	9
2548397	-27
2548410	-32
2548774	-27
2549093	30
2549106	42
2549488	223
2549501	214
2549792	27
2549805	22
2550171	-45
2550183	-47
2550526	-75
2550539	-67
2550865	253
2550878	267
2551250	161
2551263	147
2551572	-35
2551584	-38
2551953	-28
2551966	-23
2552260	68
2552273	66
2552614	267
2552626	290
2552983	106
2553295	-148
2553308	-147
2553663	-138
2553676	-131
2553975	57
2553988	66
2554337	-16
2554349	-18
2554625	-49
2554638	-45
2554994	275
2555007	271
2555314	48
2555327	28
2555625	106
2555638	103
2555990	-64
2556321	-45
2556334	-50
2556693	49
2556706	50
2556984	148
2556996	151
2557340	137
2557353	143
2557692	237
2557705	237
2558044	157
2558056	158
2558358	177
2558371	176
2558636	92
2558649	82
2559040	12
2559053	17
2559376	16
2559388	19
2559744	132
2559757	132
2560133	-31
2560145	-39
2560448	-60
2560461	-58
2560833	11
2560845	5
2561158	71
2561170	62
2561540	96
2561552	106
2561903	191
2562206	275
2562219	276
2562599	35
2562612	28
2562924	64
2562937	67
2563307	143
2563650	245
2563663	246
2564016	115
2564029	111
2564307	55
2564320	44
2564624	239
2564637	249
2583744	-4079
2610145	-96
2610486	-58
2610498	-49
2610856	-9
2610869	-9
2611155	22
2611167	28
2611443	106
2611455	106
2611675	-56
2611688	-56
2611932	-49
2611945	-65
2612352	49
2612365	70
2612758	252
2612770	259
2613135	199
2613148	205
2613504	471
2613516	500
2613842	592
2613855	592
2614203	254
2614216	249
2614551	128
2614563	132
2614827	260
2614839	293
2615065	429
2615077	476
2615310	632
2615323	662
2615563	511
2615576	520
2615794	501
2615807	511
2616031	388
2616044	387
2616262	522
2616274	563
2616499	577
2616511	562
2616721	41
2616734	20
2616932	-455
2616945	-475
2617134	-939
2617146	-871
2617338	-151
2617351	-75
2617543	220
2617556	140
2617747	-461
2617759	-593
2617949	44
2617961	174
2618149	607
2618161	570
2618349	712
2618361	723
2618548	589
2618561	555
2618746	496
2618759	485
2618946	369
2618959	344
2619145	330
2619158	336
2619342	412
2619354	147
2619540	301
2619552	334
2619739	512
2619752	518
2619930	577
2619943	573
2620125	472
2620138	516
2620314	319
2620326	365
2620501	201
2620513	515
2620687	1423
2620699	1337
2620872	897
2620884	897
2621052	385
2621065	338
2621236	60
2621248	38
2621417	-147
2621429	-152
2621597	-276
2621610	-282
2621781	-366
2621794	-367
2621986	-320
2621998	-271
2622110	-265
2622194	1008
2622207	807
2622412	-309
2622424	-134
2622628	-282
2622640	-300
2622855	-388
2622867	-381
2623194	-320
2623206	-288
2623498	-28
2623510	-32
2623820	-295
2623832	-301
2624159	-348
2624172	-357
2624519	-306
2624532	-294
2624813	-269
2624826	-266
2625082	-155
2625095	-148
2625460	-119
2625473	-91
2625741	16
2625753	27
2626167	106
2626180	104
2626528	95
2626541	90
2626930	16
2626943	19
2627298	-6
2627311	1
2627646	97
2627659	103
2628024	12
2628036	22
2628427	52
2628440	67
2628810	108
2628823	110
2629197	70
2629209	64
2629591	-29
2629603	-25
2629914	-6
2629927	-3
2630316	26
2630329	23
2630705	81
2630718	93
2631114	1
2631127	5
2631507	-45
2631520	-42
2631905	-137
2631918	-136
2632214	-107
2632227	-112
2632631	-35
2632643	-18
2633013	13
2633026	16
2633386	-13
2633399	-7
2633646	44
2633659	45
2634072	-23
2634085	-24
2634453	35
2634466	44
2634856	13
2634869	13
2635262	24
2635275	28
2635648	-10
2635661	-9
2636004	248
2636017	265
2636346	191
2636358	186
2636737	-40
2636750	-35
2637092	-58
2637105	-64
2637484	-98
2637496	-80
2637768	126
2637781	132
2638036	177
2638048	177
2638428	345
2638440	373
2638669	206
2638681	198
2638906	209
2638919	220
2639144	176
2639157	157
2639382	132
2639394	125
2639633	88
2639646	85
2639855	84
2639868	101
2640069	73
2640082	59
2640466	71
2640479	73
2640725	137
2640737	148
2641100	86
2641113	90
2641456	216
2641469	228
2641813	77
2641826	85
2642131	66
2642144	67
2642492	-28
2642505	-29
2642836	-54
2642848	-53
2643163	-40
2643176	-43
2643516	-78
2643529	-64
2643891	55
2643903	59
2644247	48
2644260	44
2644631	2
2644644	-5
2644984	17
2644997	20
2645397	11
2645410	6
2645762	23
2645775	35
2646157	-2
2646170	6
2646486	28
2646499	27
2646760	2004
2646900	1646
2646978	1519
2646990	1876
2647230	841
2647243	832
2647636	407
2647649	421
2648000	359
2648013	385
2648306	152
2648319	150
2648661	-29
2648969	-129
2648982	-116
2649325	-155
2649589	-158
2649602	-152
2650002	-126
2650359	-78
2650372	-72
2650753	1
2651106	115
2651492	90
2651849	104
2652222	163
2652567	110
2652884	79
2653206	23
2653450	56
2653462	53
2653876	46
2654242	30
2654254	30
2654669	-31
2655042	27
2655055	35
2655421	46
2655434	56
2655778	77
2655790	77
2656152	-53
2656165	-29
2656516	71
2656529	82
2656908	64
2656921	68
2657201	114
2657214	124
2657592	159
2657605	174
2657902	101
2657915	112
2658293	-85
2658306	-101
2658673	-147
2658686	-136
2658948	-109
2658960	-107
2659346	-105
2659358	-112
2659711	-63
2659724	-50
2660107	-65
2660120	-57
2660508	-56
2660520	-64
2660858	4
2660871	5
2661253	4
2661266	22
2661644	27
2661657	27
2662019	5
2662032	6
2662397	11
2662409	9
2662708	-36
2662721	-43
2662961	-7
2662974	-9
2663379	-69
2663392	-68
2663772	-47
2663785	-39
2664174	-89
2664186	-82
2664546	-57
2664558	-53
2664929	-67
2664942	-60
2665260	-28
2665273	-32
2665630	-7
2665643	-12
2665897	70
2665909	77
2666307	67
2666319	74
2666642	30
2666655	41
2666970	8
2666982	5
2667265	4
2667277	4
2667681	-27
2667694	-21
2668060	-6
2668073	-9
2668460	-71
2668473	-71
2668837	-18
2668850	-16
2669220	-79
2669233	-69
2669539	-16
2669551	-6
2669932	-43
2669945	-36
2670308	31
2670320	30
2670702	12
2670715	15
2671075	111
2671088	106
2671437	67
2671449	68
2671720	66
2671732	62
2672093	6
2672106	12
2672331	39
2672344	42
2672776	-56
2672789	-54
2673188	-45
2673200	-34
2673610	-38
2673623	-35
2673987	-6
2674000	-9
2674382	1
2674395	11
2674716	23
2674728	22
2675102	-5
2675115	6
2675474	57
2675486	59
2675904	34
2675916	48
2676288	81
2676300	79
2676675	-13
2676688	-5
2677033	17
2677045	30
2677404	146
2677416	154
2677654	64
2677667	70
2677949	17
2677961	17
2678210	-21
2678223	-35
2678482	-42
2678495	-50
2678901	-75
2678914	-65
2679307	-13
2679320	-10
2679724	-40
2679737	-42
2680119	13
2680132	17
2680501	12
2680514	27
2680890	82
2680903	78
2681288	15
2681301	26
2681655	46
2681668	56
2682048	-14
2682388	11
2682401	12
2682747	37
2682760	39
2683088	115
2683101	122
2683496	67
2683508	57
2683854	37
2683867	44
2684252	4
2684265	-2
2684629	2
2684641	2
2685006	27
2685246	46
2685259	56
2685658	46
2685670	37
2686017	122
2686029	115
2686432	86
2686445	84
2686803	34
2686816	45
2687194	28
2687207	34
2687522	20
2687535	17
2687926	-20
2687939	-16
2688307	-12
2688319	-14
2688712	-29
2688724	-28
2689069	-20
2689082	-13
2689454	16
2689467	11
2689800	23
2689813	23
2690175	27
2690187	35
2690470	75
2690483	88
2690833	159
2690846	165
2691242	70
2691255	70
2691605	70
2691618	62
2692000	22
2692013	27
2692353	41
2692365	37
2692764	-3
2692777	-6
2693137	-29
2693150	-35
2693528	-5
2693541	0
2693895	1
2693908	-2
2694193	45
2694206	55
2694450	64
2694462	73
2694708	108
2694720	111
2695127	82
2695140	85
2695522	82
2695535	93
2695936	19
2695949	19
2696320	56
2696333	56
2696701	12
2696714	9
2697037	26
2697050	28
2697433	-27
2697445	-16
2697812	-7
2697825	-9
2698199	-45
2698212	-46
2698566	6
2698579	8
2698909	19
2698921	17
2699192	60
2699205	71
2699622	59
2699635	66
2739859	-15075
2740163	2290
2740309	-32768
2740416	-32768
2740434	32767
2740460	-4002
2740485	32767
2740527	-32768
2745270	431
2745518	425
2745741	376
2745753	370
2746131	170
2746360	381
2746615	421
2746628	407
2746905	545
2747151	739
2747163	731
2747560	314
2747895	126
2747907	117
2748297	55
2748656	-24
2749020	-79
2749393	-34
2749750	214
2750073	140
2750377	37
2750632	125
2751035	333
2751308	384
2751320	363
2751690	186
2751966	198
2752201	103
2752459	50
2752471	39
2752873	-79
2753241	188
2753545	372
2753558	372
2753941	92
2754247	-2
2754259	-2
2754605	24
2754912	187
2754924	183
2755339	89
2755682	37
2756064	-21
2756426	-97
2756779	-78
2757111	-25
2757420	341
2757816	296
2758162	49
2758515	35
2758853	-46
2759143	-98
2759475	-45
2759860	653
2760147	647
2760409	297
2760641	118
2760653	110
2761058	-105
2761304	-109
2761316	-113
2761735	-148
2762075	-65
2762087	-61
2762478	602
2762830	629
2763197	186
2763474	33
2763713	44
2763935	135
2764135	1591
2764148	1627
2764342	1773
2764354	1774
2764565	1743
2764577	1719
2764803	1074
2764815	1040
2765149	-21
2765391	-411
2765404	-426
2765646	-561
2765863	-393
2765875	-435
2766135	199
2766147	128
2766404	327
2766733	-57
2766745	-60
2767071	-192
2767354	-72
2767367	-72
2767727	-192
2768021	-191
2768033	-193
2768330	135
2768342	187
2768566	293
2768579	278
2768787	217
2768800	216
2769089	472
2769101	352
2769335	613
2769556	365
2769568	366
2769805	210
2770027	491
2770039	511
2770424	815
2770768	334
2771142	-89
2771482	-174
2771820	-199
2772194	-288
2772449	-224
2772664	-250
2772677	-247
2772918	-138
2772929	-126
2773339	487
2773352	494
2773703	341
2774075	38
2774465	-181
2774836	-262
2775202	-247
2775565	-266
2775927	-228
2776305	-159
2776659	8
2776955	129
2777283	41
2777531	66
2777788	108
2778177	-29
2778497	79
2778749	187
2778986	387
2779210	345
2779432	238
2779632	139
2779644	130
2779847	147
2779859	144
2780123	417
2780348	526
2780360	500
2780738	31
2780983	-68
2780995	-68
2781379	35
2781746	199
2782130	-28
2782494	-173
2782862	-222
2783211	-210
2783546	30
2783902	396
2784255	180
2784544	27
2784812	2
2785046	235
2785285	462
2785701	104
2786033	-6
2786449	-155
2786811	-149
2787186	-211
2787442	-202
2787837	-180
2788208	-211
2788571	-126
2788939	-118
2789267	-100
2789639	-94
2790330	-120
2790686	-137
2791010	-69
2791023	-69
2791376	-36
2791693	-83
2792008	-49
2792020	-50
2792358	-86
2792665	-39
2792678	-39
2793080	-57
2793424	-16
2793436	-16
2793795	-24
2794112	-31
2794418	17
2794431	20
2794787	129
2795082	180
2795095	179
2795341	90
2795552	112
2795564	112
2795986	24
2795999	12
2796375	-76
2796388	-79
2796782	-78
2796794	-82
2797163	-104
2797523	-32
2797535	-34
2797920	-45
2798284	17
2798296	19
2798674	-6
2799034	28
2799410	26
2799759	-17
2800118	19
2800454	-5
2800777	49
2800789	53
2801165	37
2801519	20
2801875	97
2801887	103
2802228	53
2802527	90
2802539	97
2802899	256
2802911	256
2803255	106
2803597	115
2803610	110
2803983	-61
2804273	-85
2804285	-85
2804664	63
2804676	66
2805021	2
2805345	39
2805358	35
2805726	-27
2805991	24
2806003	24
2806397	100
2806409	100
2806777	37
2807067	132
2807080	128
2807464	67
2807734	50
2807747	53
2808133	66
2808146	63
2808490	-6
2808757	55
2808770	53
2809143	88
2809424	130
2809436	133
2809840	67
2810088	59
2810100	56
2810520	66
2810533	62
2810931	34
2811336	66
2811349	64
2811732	30
2812101	71
2812113	74
2812511	20
2812889	77
2813259	92
2813271	90
2813647	41
2814002	159
2814355	137
2814637	129
2814649	126
2815030	26
2815358	23
2815742	9
2816101	-46
2816436	49
2816449	50
2816832	62
2817164	49
2817534	60
2817546	56
2817916	-12
2818252	73
2818264	82
2818645	96
2818987	20
2819304	86
2819316	82
2819705	26
2819992	74
2820005	78
2820404	97
2820416	92
2820784	20
2821151	59
2821498	56
2821780	201
2821792	199
2822191	122
2822462	63
2822710	241
2822722	242
2823144	216
2823429	165
2823441	158
2823877	4
2824265	-34
2824277	-34
2824678	-131
2825044	-51
2825056	-47
2825443	-9
2825455	-10
2825834	-28
2826208	187
2826595	115
2826961	75
2826973	74
2827370	42
2827737	35
2828127	66
2828515	31
2828845	117
2829203	93
2829524	110
2829536	108
2829867	110
2830174	137
2830491	208
2830503	213
2830891	213
2831208	129
2831537	144
2831550	151
2831854	421
2832126	359
2832138	351
2832528	90
2832540	86
2832907	-53
2833212	-36
2833225	-39
2833631	-45
2833983	-90
2834359	57
2834371	73
2834751	122
2835112	121
2835125	122
2835519	28
2835850	-2
2835862	-5
2836254	-23
2836621	-74
2836914	-6
2836927	4
2837324	118
2837698	5
2838035	45
2838047	45
2838422	-25
2838698	64
2838710	68
2839103	67
2839447	107
2839460	106
2839853	63
2840194	70
2840559	53
2840572	53
2840939	-20
2841239	126
2841251	133
2841631	92
2841975	24
2842328	41
2842340	39
2842689	33
2842982	118
2842994	112
2843328	50
2843583	60
2843595	71
2843827	254
2843839	254
2844272	194
2844662	114
2844675	110
2845091	-46
2845466	-27
2845479	-24
2845877	1
2846203	85
2846216	84
2846614	38
2846982	-46
2847349	8
2847362	6
2847747	-40
2848091	9
2848104	12
2848484	17
2848497	19
2848853	-18
2849190	30
2849202	27
2849588	26
2849601	27
2849963	-10
2850289	89
2850301	99
2850690	261
2851023	148
2851374	63
2851386	62
2851751	-56
2852053	-6
2852065	-9
2852467	64
2852806	394
2852819	413
2853201	314
2853488	126
2853850	13
2853862	15
2854221	-39
2854531	-14
2854544	-17
2854947	-64
2855277	-57
2855665	-43
2856027	16
2856374	23
2856386	20
2856722	-17
2857054	12
2857411	19
2857423	19
2857746	0
2858078	67
2858090	71
2858462	16
2858770	49
2858782	45
2859168	41
2859181	41
2859523	-3
2859793	74
2859806	74
2860201	274
2860213	279
2860570	143
2860924	60
2860937	52
2861338	1
2861672	11
2862055	-7
2862418	-28
2862771	16
2862784	17
2863167	-5
2863497	146
2863509	152
2863934	287
2864204	304
2864216	300
2864623	99
2864636	90
2864983	-42
2865335	-63
2865348	-63
2865715	-39
2866076	-9
2866088	-9
2866487	12
2866840	28
2866853	28
2867244	-3
2867590	17
2867962	57
2867974	56
2868343	56
2868678	46
2868690	46
2869063	38
2869415	46
2869797	64
2870160	17
2870512	157
2870898	111
2871222	97
2871234	96
2871627	53
2871944	97
2872304	106
2872317	100
2872701	23
2873052	53
2873065	52
2873413	22
2873697	28
2873709	28
2874084	27
2874097	30
2874454	179
2874794	205
2874806	205
2875179	101
2875531	12
2875898	-14
2875911	-21
2876178	8
2876411	378
2876423	406
2876857	669
2877259	292
2877271	283
2877705	-20
2878093	-93
2878106	-91
2878508	-138
2878878	-101
2878890	-105
2879289	-129
2879664	-83
2880050	15
2880407	13
2880793	-10
2881172	-36
2881496	-16
2881509	-17
2881902	-21
2882260	73
2882603	118
2882944	33
2883271	33
2883284	35
2883666	143
2883924	180
2883937	179
2884334	88
2884660	44
2884673	39
2885061	9
2885074	12
2885420	-27
2885793	-18
2885806	-18
2886191	-50
2886444	0
2886457	1
2886867	27
2887196	27
2887209	23
2887590	1
2887602	5
2887962	-25
2888315	67
2888327	74
2888705	112
2888962	112
2888975	110
2889354	97
2889367	100
2889735	154
2890099	139
2890111	133
2890476	17
2890822	12
2890834	12
2891186	96
2891504	172
2891516	170
2891893	82
2892251	13
2892638	-10
2892651	-14
2893040	-57
2893400	-10
2893412	-13
2893791	-49
2894129	15
2894141	13
2894538	15
2894876	8
2895242	38
2895255	39
2895625	17
2895907	35
2895920	38
2896267	55
2896280	56
2896619	111
2896940	104
2896952	104
2897326	46
2897660	30
2897990	67
2898003	66
2898348	-13
2898726	8
2898738	11
2899162	2
2899516	19
2899915	30
2899927	31
2900303	-13
2900664	46
2900677	48
2901067	35
2901339	59
2901573	86
2901586	81
2902003	177
2902354	176
2902366	174
2902775	0
2903141	-9
2903153	-5
2903543	-49
2903883	-21
2904261	8
2904623	-16
2904966	46
2905358	49
2905669	52
2906004	71
2906017	68
2906392	41
2906718	70
2906730	70
2907084	103
2907096	106
2907453	155
2907794	106
2907807	103
2908186	17
2908492	8
2908867	6
2909198	24
2909574	50
2909587	52
2909944	15
2910272	81
2910285	84
2910688	71
2911034	73
2911378	155
2911752	89
2912145	64
2912157	64
2912539	16
2912919	59
2912931	67
2913335	35
2913691	68
2913704	75
2914095	74
2914431	48
2914730	104
2914742	101
2915120	46
2915433	84
2915445	85
2915842	96
2916197	77
2916563	99
2916575	95
2916927	57
2917252	96
2917265	95
2917608	70
2917893	92
2917906	89
2918294	79
2918306	82
2918635	35
2918874	96
2918886	92
2919283	95
2919295	90
2919640	33
2919896	97
2919908	93
2920296	79
2920553	38
2920769	117
2920781	115
2921210	70
2921540	114
2921553	110
2921973	31
2922320	-3
2922708	46
2923089	5
2923458	82
2923470	85
2923860	49
2924144	93
2924157	95
2924561	104
2924909	74
2925288	99
2925601	60
2925868	89
2925880	88
2926221	104
2926234	103
2926594	37
2926924	101
2926937	100
2927298	77
2927619	81
2927948	119
2927960	118
2928342	49
2928610	101
2928622	101
2929016	63
2929289	67
2929548	117
2929560	108
2929969	39
2930269	66
2930282	68
2930645	110
2930658	106
2931006	38
2931274	88
2931287	85
2931672	84
2931916	74
2932133	37
2932333	119
2932345	126
2932546	177
2932558	179
2932950	88
2932963	85
2933213	115
2933225	107
2933661	78
2934069	82
2934081	81
2934474	4
2934870	60
2935268	45
2935644	75
2936034	99
2936420	62
2936811	110
2937203	60
2937440	79
2937662	159
2937675	157
2938111	95
2938503	97
2938516	93
2938927	24
2939310	88
2939702	71
2939989	85
2940398	103
2940791	70
2941161	124
2941558	59
2941909	104
2942293	104
2942640	85
2943001	115
2943358	82
2943693	93
2944071	111
2944359	70
2944622	119
2944634	110
2945059	77
2945466	78
2945700	122
2945712	121
2945937	96
2946151	176
2946164	172
2946623	39
2947021	49
2947034	48
2947419	-36
2947642	-5
2947654	1
2947928	82
2947940	81
2948381	82
2948778	81
2948790	78
2949187	20
2949569	101
2949582	101
2949974	45
2950332	89
2950345	92
2950737	89
2951106	78
2951475	106
2951832	66
2952098	111
2952500	115
2952831	45
2953192	101
2953205	100
2953599	67
2953945	100
2954321	110
2954669	78
2954995	110
2955376	60
2955718	86
2956059	114
2956392	33
2956749	97
2957138	82
2957476	75
2957855	99
2958209	33
2958544	89
2958916	71
2959250	27
2959587	84
2959946	42
2960277	84
2960646	85
2960991	33
2961313	95
2961326	97
2961703	41
2961977	67
2961989	68
2962401	89
2962746	34
2963053	75
2963065	73
2963392	86
2963405	89
2963716	11
2964006	62
2964019	64
2964279	73
2964505	38
2964732	133
2964744	129
2965205	33
2965578	48
2965590	48
2965993	28
2966360	60
2966759	89
2967121	37
2967482	100
2967870	86
2968171	37
2968541	101
2968927	42
2969178	88
2969191	82
2969612	92
2970305	106
2970654	52
2970986	106
2970998	106
2971368	66
2971702	130
2971983	155
2971996	159
2972239	89
2972453	95
2972465	93
2972684	140
2972696	128
2973131	201
2973143	201
2973571	79
2973959	63
2973971	66
2974379	2
2974630	28
2974870	100
2974882	96
2975321	301
2975721	170
2976119	-3
2976497	0
2976893	-24
2977247	-13
2977551	38
2977930	12
2978203	55
2978599	77
2978957	26
2979304	81
2979623	49
2979891	77
2980288	101
2980655	56
2980947	84
2981308	93
2981675	31
2981942	110
2982338	150
2982703	35
2982999	73
2983380	44
2983683	12
2984042	70
2984371	78
2984703	74
2985055	95
2985407	41
2985735	104
2986089	117
2986436	55
2986776	108
2987175	81
2987444	42
2987834	103
2988191	45
2988489	97
2988861	93
2989232	17
2989592	79
2989935	49
2990240	78
2990588	115
2990948	50
2991280	95
2991606	49
2991900	100
2991912	99
2992279	90
2992607	44
2992946	101
2993290	89
2993600	24
2993910	96
2994253	82
2994562	39
2994901	93
2995272	41
2995523	86
2995768	136
2995781	128
2996181	70
2996540	110
2996829	57
2997093	85
2997372	122
2997384	117
2997778	39
2998151	106
2998422	126
2998435	121
2998746	33
2999023	111
2999035	107
2999426	101
2999675	22
2999906	22
2999918	12
3000349	62
3000718	-16
3001071	35
3001444	28
3001738	42
3002081	108
3002440	53
3002709	111
3003090	166
3003429	110
3003737	143
3004106	128
3004392	60
3004654	112
3005053	114
3005410	34
3005649	112
3005875	151
3005887	146
3006295	38
3006644	106
3007038	92
3007370	84
3007741	126
3008097	44
3008404	95
3008797	78
3009053	39
3009326	117
3009338	110
3009748	50
3010022	68
3010265	143
3010278	136
3010667	77
3010926	99
3011142	162
3011154	163
3011389	74
3011607	23
3011619	27
3011857	150
3011869	144
3012326	45
3012704	82
3012716	82
3013105	-6
3013480	84
3013856	59
3014212	75
3014589	125
3014937	68
3015268	146
3015650	147
3015985	93
3016308	141
3016634	68
3016943	99
3017287	124
3017616	128
3017937	-93
3018262	-64
3018604	-67
3018937	-107
3019216	-72
3019494	15
3019875	-17
3020106	56
3020119	59
3020371	119
3020383	114
3020624	86
3020858	84
3021126	165
3021138	158
3021556	64
3021825	124
3021837	124
3022193	155
3022205	155
3022455	108
3022681	104
3022912	220
3022924	219
3023340	139
3023644	163
3023657	159
3024046	111
3024341	35
3024603	96
3024615	95
3025004	114
3025358	56
3025650	137
3025662	137
3025939	143
3026285	66
3026611	135
3026992	126
3027299	59
3027562	132
3027574	129
3027833	151
3027845	146
3028239	41
3028522	108
3028535	110
3028840	108
3029122	35
3029385	96
3029397	90
3029821	81
3030200	46
3030568	100
3030889	33
3031134	88
3031341	93
3031354	84
3031566	9
3031776	38
3031788	35
3032077	41
3032089	34
3032315	107
3032327	107
3032758	92
3033165	114
3033178	111
3033583	-2
3033873	28
3033885	27
3034146	46
3034394	2
3034807	165
3034820	166
3035219	48
3035587	64
3035600	60
3035989	24
3036331	60
3036718	114
3037083	62
3037361	117
3037762	96
3038084	71
3038343	125
3038643	100
3038968	103
3039345	129
3039663	155
3040016	114
3040325	9
3040593	67
3040605	64
3040998	62
3041288	31
3041538	115
3041551	112
3041936	86
3042200	57
3042452	121
3042464	117
3042852	45
3043106	103
3043358	147
3043371	141
3043604	133
3043826	82
3044035	135
3044047	133
3044490	74
3044840	100
3044852	96
3045233	97
3045561	49
3045830	106
3045842	100
3046239	56
3046547	68
3046940	111
3047310	24
3047658	96
3048017	38
3048329	81
3048722	93
3049078	49
3049395	119
3049775	114
3050109	41
3050413	89
3050781	97
3051118	31
3051411	93
3051788	92
3052120	-12
3052452	78
3052814	86
3053137	17
3053446	85
3053775	107
3054091	38
3054402	110
3054761	95
3055062	63
3055362	135
3055719	77
3055990	82
3056295	126
3056308	125
3056644	107
3056954	60
3057222	115
3057234	110
3057493	104
3057743	27
3057999	50
3058011	44
3058414	59
3058765	49
3059104	96
3059428	38
3059745	117
3060114	125
3060401	125
3060742	-27
3061128	122
3061556	8
3061952	38
3062365	42
3062646	38
3062932	143
3062945	137
3063367	111
3063643	79
3064056	152
3064443	89
3064709	135
3065005	162
3065017	158
3065403	101
3065666	86
3065905	166
3065917	159
3066324	117
3066629	73
3066913	143
3067279	99
3067534	68
3067784	135
3068031	150
3068043	137
3068425	52
3068687	100
3069058	135
3069333	66
3069573	106
3069852	144
3069864	137
3070221	70
3070488	103
3070850	130
3071149	85
3071408	100
3071695	137
3072082	62
3072342	96
3072583	140
3072827	93
3073124	50
3073533	106
3073911	41
3074249	117
3074601	63
3074831	-29
3075035	-32
3075047	-34
3075263	-12
3075705	67
3076129	8
3076480	67
3076493	64
3076917	78
3077276	99
3077669	137
3078042	71
3078399	141
3078785	108
3079090	152
3079473	117
3079756	128
3080136	128
3080466	73
3080795	133
3081124	92
3081423	114
3081782	151
3082107	93
3082367	119
3082625	141
3082922	117
3083204	74
3083504	124
3083885	13
3084133	55
3084366	124
3084379	119
3084640	78
3084939	4
3085344	68
3085356	70
3085750	20
3086122	75
3086454	0
3086785	100
3087140	67
3087422	122
3087695	183
3087707	177
3088107	81
3088470	144
3088808	119
3089093	73
3089362	139
3089374	135
3089779	82
3090035	85
3090298	159
3090310	155
3090715	104
3090982	90
3091356	136
3091714	82
3092028	97
3092375	100
3092695	110
3093005	60
3093335	108
3093732	99
3094106	92
3094390	53
3094647	112
3095063	96
3095356	86
3095629	143
3095941	82
3096248	100
3096654	115
3097014	38
3097312	118
3097548	126
3097786	-2
3098032	16
3098045	13
3098489	97
3098892	45
3099162	119
3099175	119
3099468	85
3099743	77
3100124	139
3100136	135
3100510	67
3100756	122
3100987	170
3100999	162
3101252	161
3101503	104
3101730	141
3101941	183
3101954	179
3102179	136
3102448	42
3102691	93
3102703	95
3102978	130
3102990	125
3103253	110
3103537	93
3103924	136
3104281	56
3104510	-16
3104522	12
3104730	172
3104742	124
3104940	-286
3104953	-275
3105143	-5640
3105156	-6546
3105347	-4611
3105359	-4659
3105547	-2212
3105560	-2288
3105757	-100
3105769	-14
3105970	-771
3105982	-761
3106181	1121
3106193	1171
3106388	1342
3106400	1306
3106589	963
3106601	899
3106792	771
3106804	766
3106992	472
3107004	435
3107188	78
3107201	26
3107381	-14
3107394	62
3107573	1030
3107586	1044
3107764	1045
3107777	1153
3107952	2702
3107964	2509
3108136	1948
3108148	1880
3108321	1686
3108334	1692
3108505	1365
3108517	1343
3108688	1153
3108701	1145
3108870	832
3108882	811
3109052	618
3109064	606
3109239	478
3109252	458
3109435	197
3109448	166
3109629	17
3109641	12
3109820	-104
3109832	-112
3110012	-131
3110024	-127
3110204	-145
3110216	-158
3110397	-246
3110410	-243
3110609	-120
3110621	-119
3110884	-75
3110896	-83
3111169	-159
3111182	-155
3111504	-20
3111517	-17
3111855	-72
3111867	-72
3112097	-40
3112109	-25
3112350	92
3112362	88
3112760	-24
3112773	-38
3113115	86
3113128	96
3113528	67
3113541	67
3113798	-14
3113810	-14
3114079	107
3114091	99
3114474	37
3114486	34
3114722	28
3114734	35
3114987	114
3114999	103
3115408	30
3115421	39
3115839	89
3115851	85
3116219	8
3116231	16
3116625	64
3116637	64
3117012	1
3117024	-6
3117402	95
3117414	97
3117807	143
3117820	146
3118053	130
3118066	128
3118287	166
3118300	23
3118542	48
3118555	45
3118796	-233
3118809	-236
3119044	192
3119056	176
3119298	90
3119310	79
3119713	126
3119725	124
3120082	15
3120094	15
3120446	-53
3120458	-54
3120828	50
3120841	42
3121237	-45
3121599	146
3121612	141
3122009	79
3122021	46
3122378	-20
3122391	-5
3122758	8
3122771	9
3123134	117
3123147	107
3123395	-13
3123408	-17
3123792	35
3123805	34
3124202	0
3124572	52
3124585	50
3124974	46
3124987	49
3125341	33
3125716	73
3125728	77
3126093	-6
3126353	78
3126366	79
3126789	55
3126802	57
3127164	114
3127177	117
3127578	118
3127590	111
3127950	16
3128232	59
3128244	53
3128650	62
3128662	73
3129039	50
3129052	50
3129441	82
3129454	81
3129785	11
3129798	17
3130150	59
3130162	59
3130548	45
3130829	93
3130841	92
3131097	104
3131110	99
3131367	85
3131380	70
3131644	157
3131657	151
3132075	146
3132088	136
3132440	101
3132452	95
3132801	192
3132814	199
3133103	246
3133116	245
3133475	151
3133488	170
3133852	8
3134121	37
3134134	31
3134531	-3
3134544	11
3134841	4
3134853	1
3135238	23
3135251	22
3135597	15
3135609	12
3135894	68
3135906	63
3136316	88
3136329	79
3136692	37
3136704	42
3137056	56
3137069	62
3137450	62
3137463	57
3137743	45
3137756	39
3138021	82
3138033	86
3138439	115
3138452	117
3138711	99
3138723	92
3138948	119
3138961	124
3139174	121
3139187	111
3139393	90
3139406	95
3139620	176
3139633	173
3139849	146
3139862	147
3140069	95
3140081	99
3140306	162
3140319	165
3140528	214
3140540	214
3140768	212
3140781	191
3141159	73
3141171	79
3141557	60
3141570	59
3141941	11
3141953	8
3142337	11
3142350	2
3142723	77
3142736	78
3143099	99
3143111	115
3143487	81
3143500	75
3143894	34
3144246	66
3144258	71
3144634	63
3144646	64
3145000	35
3145013	34
3145356	100
3145368	99
3145719	106
3145731	106
3146055	33
3146068	30
3146406	329
3146418	338
3146797	254
3146810	253
3147064	128
3147076	126
3147474	68
3147487	68
3147864	-61
3147876	-75
3148146	-10
3148159	-7
3148557	-35
3148570	-38
3148878	5
3148891	12
3149263	15
3149275	24
3149609	24
3149621	28
3149946	78
3150339	50
3150352	52
3150606	52
3150619	57
3150999	73
3151011	79
3151374	30
3151386	35
3151679	79
3151691	79
3152051	39
3152063	33
3152393	122
3152405	121
3152782	108
3152795	117
3153153	67
3153165	74
3153537	67
3153550	68
3153901	62
3153914	59
3154206	73
3154219	68
3154596	73
3154608	75
3154953	75
3154966	71
3155269	129
3155282	133
3155671	129
3155683	128
3156029	165
3156042	163
3156368	129
3156380	126
3156737	16
3156750	16
3157091	-29
3157104	-29
3157449	22
3157461	27
3157827	50
3157839	50
3158147	62
3158160	62
3158494	70
3158506	79
3158851	169
3158864	168
3159150	169
3159163	168
3159549	71
3159562	78
3159906	9
3159918	16
3160239	49
3160251	49
3160625	6
3160638	9
3160984	57
3160996	57
3161394	49
3161406	55
3161712	78
3161724	77
3162122	68
3162135	67
3162529	24
3162542	17
3162911	81
3162924	88
3163330	78
3163343	71
3163697	74
3163709	74
3164093	-2
3164105	-2
3164459	130
3164472	130
3164845	52
3164857	49
3165214	60
3165226	73
3165610	74
3165623	73
3165966	53
3165978	59
3166347	37
3166360	38
3166714	-3
3166727	-9
3167065	68
3167077	75
3167454	71
3167466	68
3167810	56
3167823	67
3168172	77
3168185	70
3168536	37
3168548	42
3168870	115
3168883	117
3169258	55
3169270	50
3169609	39
3169622	45
3169948	73
3169960	77
3170289	79
3170302	77
3170558	117
3170570	115
3170958	115
3170970	111
3171323	45
3171336	62
3171646	372
3171659	374
3172005	301
3172018	299
3172286	227
3172299	224
3172682	30
3172694	22
3173047	-56
3173060	-53
3173425	-36
3173438	-35
3173795	-53
3173807	-60
3174084	12
3174096	11
3174483	23
3174496	34
3174813	42
3174825	41
3175131	75
3175143	70
3175509	24
3175522	19
3175840	56
3175853	64
3176247	118
3176260	121
3176617	84
3176630	82
3176986	31
3176998	30
3177367	5
3177380	-2
3177728	68
3177741	63
3178105	70
3178117	67
3178456	15
3178469	19
3178805	37
3178818	34
3179182	19
3179195	22
3179511	57
3179524	68
3179883	73
3179895	70
3180248	81
3180260	82
3180582	112
3180594	111
3180954	33
3180966	34
3181232	93
3181245	106
3181463	174
3181475	194
3181673	130
3181686	118
3181880	-276
3181892	-306
3182086	-342
3182098	-382
3182320	-98
3182333	-68
3182595	117
3182608	103
3182835	-67
3182847	-75
3183075	276
3183087	293
3183300	209
3183313	209
3183518	188
3183531	190
3183733	256
3183745	259
3183960	264
3183972	248
3184373	42
3184386	30
3184726	60
3184739	56
3185139	41
3185151	49
3185533	-28
3185546	-27
3185922	17
3185935	20
3186324	-13
3186337	-12
3186620	-64
3186632	-57
3186871	42
3186884	45
3187097	-9
3187109	-12
3187329	38
3187341	35
3187572	48
3187584	42
3187842	73
3187854	70
3188097	106
3188110	110
3188331	170
3188344	187
3188559	-187
3188571	-399
3188801	44
3188812	-305
3189037	333
3189049	289
3189279	-780
3189291	-684
3189503	-233
3189516	-209
3189730	-90
3189743	-93
3189953	-112
3189966	-136
3190175	-145
3190188	-162
3190405	-32
3190417	-24
3190639	77
3190652	57
3190868	161
3190880	174
3191092	243
3191104	234
3191317	74
3191329	93
3191545	143
3191557	140
3191767	107
3191779	100
3191989	197
3192002	201
3192220	279
3192232	270
3192445	216
3192457	212
3192663	186
3192675	181
3192887	147
3192899	137
3193303	71
3193315	64
3193671	-63
3193991	24
3194003	22
3194353	15
3194365	1
3194706	-91
3195276	59
3195288	59
3195679	13
3195907	195
3195919	201
3196135	210
3196147	195
3196361	-9
3196374	-12
3196590	249
3196602	252
3196869	260
3196881	232
3197112	67
3197124	75
3197513	95
3197526	95
3197850	-82
3197862	-85
3198287	9
3198299	11
3198739	5
3198752	-2
3199128	34
3199141	37
3199560	26
3199572	27
3199949	139
3199962	147
3200350	118
3200363	114
3200735	63
3201091	108
3201104	100
3201489	55
3201501	50
3201848	-10
3201861	-2
3202199	39
3202212	42
3202586	55
3202912	154
3202925	159
3203266	110
3203279	106
3203568	42
3203581	41
3203904	49
3203917	53
3204291	205
3204304	214
3204632	234
3204644	232
3205003	95
3205016	90
3205356	-5
3205368	-13
3205661	-46
3205673	-50
3206029	-9
3206041	-7
3206402	-28
3206676	-14
3206688	73
3207070	13
3207083	11
3207459	45
3207777	190
3207789	186
3208171	67
3208184	70
3208470	41
3208482	41
3208852	28
3208865	28
3209219	-50
3209550	49
3209563	45
3209948	-3
3209961	-7
3210211	28
3210223	33
3210614	46
3210626	50
3211021	46
3211372	137
3211385	136
3211749	27
3211762	23
3211983	45
3211996	39
3212199	26
3212211	30
3212408	79
3212421	68
3212621	89
3212633	77
3212846	37
3212859	38
3213067	71
3213079	77
3213285	92
3213297	88
3213708	71
3213720	79
3214120	186
3214133	190
3214524	115
3214536	118
3214918	75
3214930	79
3215312	15
3215325	16
3215708	41
3215720	49
3216111	75
3216124	68
3216493	49
3216506	50
3216876	103
3216888	103
3217264	70
3217277	63
3217634	77
3217646	78
3218029	71
3218041	68
3218401	28
3218750	96
3218762	97
3219162	74
3219174	77
3219536	56
3219548	56
3219810	67
3219822	60
3220251	-6
3220263	2
3220629	118
3220641	121
3221048	-20
3221061	-21
3221413	46
3221426	45
3221831	52
3221844	45
3222213	23
3222226	23
3222575	24
3222587	24
3222972	4
3223342	56
3223354	67
3223758	82
3224114	122
3224126	125
3224529	97
3224542	101
3224872	73
3224884	78
3225264	124
3225277	122
3225665	49
3225677	49
3225946	84
3225959	84
3226373	81
3226385	81
3226739	56
3226752	60
3227101	77
3227113	95
3227488	243
3227500	234
3227761	208
3227773	205
3228153	104
3228166	110
3228512	44
3228845	57
3228858	48
3229218	-14
3229231	-12
3229497	-7
3229509	-14
3229788	52
3229801	55
3230178	115
3230190	117
3230501	152
3230513	152
3230853	168
3230866	170
3231209	287
3231221	292
3231543	228
3231555	223
3231924	53
3231936	46
3232222	31
3232235	24
3232597	19
3232610	17
3232984	28
3233293	37
3233306	37
3233676	19
3233689	20
3234010	-5
3234023	-3
3234348	64
3234361	66
3234750	75
3234762	67
3235073	101
3235086	100
3235460	107
3235472	107
3235809	78
3236146	81
3236158	82
3236555	180
3236568	170
3236816	166
3236829	172
3237075	157
3237087	140
3237528	377
3237540	378
3237938	311
3237950	305
3238371	38
3238384	33
3238770	-64
3238782	-65
3239189	-149
3239202	-152
3239570	-9
3239582	-9
3263386	-1739
3263414	-20902
3285154	-171
3285514	-133
3285527	-115
3285897	-56
3286249	-187
3286262	-174
3286651	-228
3286997	-123
3287348	-192
3287708	-185
3288060	-247
3288377	-80
3288390	-87
3288667	-64
3288679	-45
3288902	52
3288915	75
3289121	155
3289134	161
3289528	-17
3289540	-20
3289777	-94
3289790	-83
3290038	-140
3290050	-221
3290266	-421
3290279	-373
3290509	-78
3290522	-46
3290761	-202
3290773	-204
3291100	15
3291112	31
3291467	-74
3291808	-115
3291821	-111
3292173	-159
3292515	-64
3292528	-58
3292897	-145
3293248	-90
3293261	-89
3293641	-173
3293989	-149
3294002	-138
3294387	-94
3294764	-96
3295138	-96
3295509	-170
3295764	-75
3295776	-58
3296205	-9
3296570	-79
3296582	-75
3297005	-173
3297385	-63
3297398	-47
3297818	-134
3298143	-98
3298155	-86
3298542	-108
3298917	-24
3298930	-17
3299354	-131
3299724	-170
3299737	-163
3300108	-94
3300373	-142
3300385	-133
3300702	-53
3300769	13
3300782	-5
3301166	-193
3301454	-111
3301467	-105
3301868	-226
3302220	-96
3302233	-89
3302614	-112
3302950	-80
3302962	-68
3303328	-116
3303665	-50
3304025	-89
3304355	35
3304368	46
3304750	-38
3305110	-69
3305474	-14
3305827	-40
3306186	39
3306551	-25
3306889	-89
3306902	-85
3307276	-175
3307616	-147
3307916	-123
3308163	-140
3308176	-131
3308423	-50
3308435	-47
3308729	-136
3308742	-138
3309148	-16
3309161	-7
3309587	-65
3309600	-63
3309999	1
3310012	9
3310428	-98
3310812	5
3310824	6
3311227	-74
3311584	0
3311597	12
3312016	-43
3312398	2
3312411	11
3312829	-109
3313193	-9
3313206	-3
3313616	-89
3313987	-113
3314000	-107
3314387	-111
3314755	-209
3315109	-120
3315122	-109
3315520	-129
3315884	-86
3315896	-76
3316289	-39
3316625	-65
3316993	38
3317380	-36
3317777	-28
3318157	-86
3318554	27
3318945	-75
3319309	11
3319322	16
3319734	-130
3320089	-136
3320101	-129
3320499	-64
3320849	-96
3320861	-86
3321238	-45
3321251	-45
3321620	-191
3321964	-68
3321977	-60
3322365	-87
3322720	-18
3323110	8
3323475	-58
3323840	82
3323853	88
3324244	15
3324604	27
3324911	-20
3325138	-47
3325150	-28
3325380	35
3325392	38
3325791	-61
3325804	-40
3326219	24
3326232	30
3326639	-20
3326651	-12
3327085	-17
3327472	-63
3327485	-64
3327878	-47
3327891	-39
3328288	-96
3328672	-40
3329078	-82
3329427	-137
3329790	12
3329802	22
3330208	-36
3330597	26
3330610	33
3331050	-53
3331453	0
3331466	6
3331893	-34
3332308	52
3332709	2
3333094	24
3333493	-75
3333871	-76
3333883	-69
3334269	-142
3334634	-104
3334647	-97
3335041	-145
3335300	-57
3335313	-53
3335732	-141
3336110	-67
3336123	-57
3336549	-67
3336561	-54
3336948	63
3336961	68
3337376	53
3337669	28
3337682	33
3338136	-17
3338149	-23
3338540	-16
3338553	-3
3338975	86
3338988	88
3339397	34
3339781	79
3339794	86
3340201	15
3340579	28
3340592	35
3340999	-9
3341330	-35
3341697	0
3341710	2
3342105	-43
3342506	-14
3342894	-20
3342907	-13
3343304	71
3343317	77
3343702	-13
3344069	31
3344082	37
3344475	2
3344824	12
3344836	15
3345217	73
3345587	1
3345936	84
3345949	90
3346323	-39
3346671	15
3346683	22
3347110	-93
3347495	-10
3347507	-9
3347929	-97
3348315	31
3348328	37
3348746	-10
3349070	100
3349083	108
3349498	-34
3349895	68
3349908	77
3350340	59
3350738	92
3350751	90
3351152	11
3351522	62
3351535	66
3351938	-18
3352313	35
3352326	39
3352725	-25
3353080	23
3353093	22
3353480	-6
3353826	-13
3353839	-9
3354228	33
3354580	-38
3354944	84
3355322	35
3355682	115
3356050	106
3356368	99
3356381	101
3356765	97
3357127	33
3357442	68
3357455	74
3357849	-49
3358139	86
3358152	92
3358566	-23
3358929	81
3358941	86
3359332	-7
3359685	37
3359698	38
3360086	-57
3360425	56
3360438	62
3360822	73
3361159	64
3361171	75
3361554	86
3361923	68
3362278	108
3362291	106
3362675	16
3362688	24
3363055	12
3363068	13
3363451	-23
3363811	38
3363824	49
3364237	28
3364593	79
3364606	86
3365010	81
3365357	63
3365739	67
3366114	20
3366479	73
3366492	79
3366868	50
3367203	73
3367216	78
3367598	-7
3367888	-6
3367901	-3
3368281	35
3368294	38
3368659	-58
3369003	19
3369016	30
3369399	-3
3369730	82
3369742	88
3370132	124
3370486	86
3370844	103
3370857	111
3371246	-7
3371558	67
3371571	71
3371998	13
3372378	93
3372390	97
3372805	110
3373190	159
3373202	165
3373614	90
3374007	125
3374019	129
3374418	99
3374797	88
3374810	96
3375217	66
3375230	60
3375586	24
3375599	27
3375983	117
3375996	121
3376374	41
3376387	44
3376745	64
3376757	66
3377125	-53
3377138	-46
3377481	38
3377494	49
3377897	38
3378256	99
3378269	103
3378652	81
3378665	79
3379017	85
3379030	89
3379401	112
3379413	119
3379765	52
3379778	56
3380129	85
3380142	81
3380531	-85
3380544	-86
3380852	-25
3380864	-25
3381256	-25
3381269	-29
3381607	70
3381619	82
3382009	107
3382022	108
3382358	77
3382371	86
3382754	133
3382767	136
3383144	0
3383506	67
3383519	77
3383911	85
3383924	88
3384222	101
3384234	106
3384643	121
3384655	122
3385004	82
3385017	86
3385402	169
3385415	170
3385811	56
3385823	57
3386190	31
3386203	39
3386629	-17
3386642	-18
3387012	92
3387025	92
3387412	-57
3387425	-57
3387815	8
3387828	17
3388211	35
3388223	33
3388603	9
3388616	19
3389030	71
3389043	81
3389426	172
3389439	177
3389844	202
3389857	202
3390223	230
3390236	235
3390634	209
3390647	209
3391016	179
3391029	183
3391418	158
3391431	155
3391794	59
3391807	63
3392185	88
3392197	89
3392562	37
3392895	92
3392907	90
3393276	67
3393288	73
3393547	117
3393559	121
3393960	85
3393973	81
3394334	-64
3394346	-54
3394723	27
3394736	38
3395128	1
3395141	5
3395508	114
3395521	119
3395894	96
3395907	95
3396246	59
3396259	59
3396664	30
3396677	20
3397020	99
3397033	100
3397446	135
3397458	132
3397797	132
3397810	141
3398205	152
3398218	151
3398604	66
3398617	71
3398975	176
3398988	179
3399387	12
3399768	84
3399781	88
3400179	103
3400533	179
3400546	184
3400947	97
3400960	101
3401318	118
3401331	118
3401716	73
3401729	73
3402101	122
3402113	125
3402501	-10
3402514	-9
3402871	-14
3402883	-10
3403270	-13
3403283	-9
3403636	115
3403648	118
3404030	22
3404043	16
3404387	-18
3404399	-13
3404766	100
3404779	106
3405110	117
3405451	179
3405463	181
3405861	88
3405874	89
3406251	-39
3406264	-34
3406579	-17
3406592	-12
3406853	-20
3406866	-23
3407296	-218
3407309	-196
3407728	59
3407741	60
3408178	129
3408191	140
3408634	202
3408647	198
3409040	172
3409053	180
3409476	243
3409488	241
3409875	202
3409888	210
3410327	201
3410683	73
3410696	71
3411111	-116
3411124	-108
3411542	-42
3411555	-35
3411959	128
3411971	136
3412369	183
3412382	184
3412771	231
3412784	234
3413177	169
3413190	169
3413561	228
3413574	230
3413958	39
3413971	30
3414350	-13
3414363	-6
3414737	-214
3414750	-222
3415048	-283
3415060	-275
3415475	-53
3415488	-49
3415858	77
3415871	79
3416249	9
3416262	11
3416649	-49
3416662	-39
3417024	128
3417037	137
3417407	-29
3417420	-34
3417803	81
3417816	95
3418233	209
3418246	221
3418624	356
3418636	361
3419043	384
3419056	391
3419419	431
3419432	431
3419825	308
3420204	333
3420594	260
3420981	205
3421378	141
3421745	173
3422149	176
3422533	-156
3422947	-112
3423311	34
3423731	136
3424095	223
3424507	139
3424899	-6
3425279	55
3425671	60
3425997	126
3426010	128
3426425	-120
3426770	-29
3426783	-18
3427191	93
3427549	180
3427957	234
3428334	278
3428677	19
3428965	-401
3429386	-142
3429399	-130
3429847	114
3430294	252
3430695	188
3431121	95
3431523	78
3431925	174
3432326	64
3432715	-16
3433123	37
3433489	166
3433502	176
3433920	181
3434277	253
3434290	260
3434712	231
3435077	228
3435499	154
3435794	152
3435806	154
3436239	-75
3436610	-28
3437029	28
3437418	-35
3437793	50
3438195	119
3438546	224
3438951	48
3439321	56
3439333	64
3439748	129
3440114	224
3440127	225
3440527	161
3440867	1
3441277	-67
3441635	-35
3442032	62
3442359	59
3442592	-74
3442605	-82
3443043	-284
3443325	-669
3443755	-451
3444203	-141
3444610	1
3444958	-5
3445252	-195
3445265	-204
3445701	-108
3446127	37
3446529	67
3446542	70
3446978	159
3447379	307
3447797	337
3448198	334
3448598	322
3448983	367
3449382	239
3449757	129
3450159	107
3450506	208
3450883	197
3451161	181
3451399	187
3451412	183
3451645	4
3451853	23
3451865	34
3452093	166
3452106	161
3452555	140
3452861	162
3452874	158
3453339	-17
3453742	60
3454165	139
3454554	163
3454956	230
3455371	137
3455756	92
3455769	111
3456207	135
3456600	210
3457016	179
3457419	-21
3457832	-100
3458231	-72
3458628	45
3459035	147
3459416	125
3459429	129
3459883	90
3460249	147
3460262	159
3460687	97
3461064	89
3461478	112
3461875	74
3462253	125
3462663	95
3463024	104
3463424	79
3463755	67
3464171	110
3464549	232
3464943	151
3465305	159
3465318	162
3465717	129
3466086	154
3466477	-58
3466770	-182
3467196	-39
3467553	-12
3467934	22
3468293	17
3468542	115
3468764	104
3469021	155
3469033	148
3469474	85
3469921	159
3469934	162
3470388	146
3470797	187
3471227	186
3471645	110
3472064	95
3472479	155
3472884	78
3473285	111
3473700	63
3474093	106
3474504	86
3474881	56
3475294	59
3475680	104
3476064	198
3476472	148
3476849	117
3477245	19
3477593	66
3477983	104
3478378	49
3478737	155
3478750	155
3479171	-34
3479525	-9
3479538	-7
3479949	-35
3480303	99
3480715	82
3481099	90
3481538	74
3481919	104
3482293	85
3482731	-7
3483143	-90
3483576	-35
3483957	89
3483970	92
3484397	106
3484773	137
3484786	136
3485212	110
3485588	129
3486003	99
3486391	-47
3486777	31
3487178	75
3487541	46
3487951	0
3488319	48
3488702	103
3489052	139
3489289	136
3489504	66
3489697	-24
3489710	-283
3489913	569
3489926	610
3490168	-339
3490181	-344
3490431	224
3490444	219
3490685	121
3490906	117
3490919	73
3491131	28
3491143	38
3491377	-85
3491390	-72
3491784	37
3491797	-108
3492188	181
3492201	186
3492581	-134
3492977	275
3493374	198
3493771	245
3494199	78
3494589	92
3494978	140
3495258	0
3495499	93
3495512	85
3495987	-327
3496399	-309
3496412	-304
3496863	-181
3497259	297
3497271	257
3497706	75
3498103	31
3498537	363
3498917	28
3499333	41
3499718	27
3500097	84
3500527	85
3500855	-17
3501253	11
3501647	168
3502061	-63
3502424	-43
3502803	5
3503201	27
3503580	95
3503593	-63
3503984	-149
3504363	35
3504756	-142
3505136	301
3505530	-180
3505912	-28
3505925	-5
3506331	292
3506658	-91
3507089	-396
3507493	158
3507939	271
3508357	68
3508790	231
3509208	86
3509620	46
3525647	-2744
3525665	1500
3525681	6215
3555033	35
3555402	11
3555415	11
3555776	-215
3555789	-221
3556143	-144
3556156	-141
3556530	-239
3556543	-112
3556917	106
3556930	129
3557321	119
3557579	82
3557592	89
3558024	73
3558037	74
3558439	181
3558452	192
3558873	112
3558886	107
3559269	95
3559282	93
3559701	38
3560084	108
3560097	108
3560523	166
3560536	174
3560924	70
3560937	66
3561353	179
3561366	198
3561753	46
3561766	64
3562169	92
3562182	66
3562576	34
3562589	-9
3562989	122
3563002	140
3563376	179
3563389	181
3563804	294
3564184	245
3564570	184
3564954	155
3565311	147
3565324	141
3565710	73
3566078	95
3566462	135
3566827	119
3567190	92
3567203	96
3567595	9
3567949	74
3567962	71
3568338	84
3568712	63
3569077	122
3569090	126
3569492	119
3569862	154
3569875	157
3570280	79
3570670	152
3570683	155
3571097	82
3571110	82
3571486	53
3571499	41
3571916	63
3571929	68
3572310	90
3572323	89
3572724	74
3572737	71
3573109	137
3573122	132
3573507	70
3573520	75
3573861	88
3573874	88
3574285	56
3574637	48
3574650	53
3575045	137
3575423	135
3575814	73
3576204	125
3576565	180
3576578	186
3576969	177
3577335	141
3577689	56
3577702	53
3578078	158
3578448	205
3578835	93
3579171	73
3579184	68
3579572	86
3579916	132
3579929	135
3580300	115
3580655	77
3581010	82
3581023	79
3581430	190
3581669	286
3581682	287
3582102	210
3582115	202
3582489	75
3582502	64
3582930	-83
3582943	-87
3583325	19
3583338	23
3583759	84
3584123	42
3584136	59
3584545	48
3584558	53
3584977	30
3585363	71
3585376	75
3585779	263
3585792	177
3586169	59
3586182	63
3586581	147
3586947	221
3586960	64
3587330	2
3587343	-63
3587708	-72
3587721	-69
3588126	-76
3588477	2
3588490	34
3588892	9
3589276	369
3589671	296
3590045	179
3590058	121
3590477	191
3590846	150
3590859	165
3591230	39
3591243	-35
3591617	103
3591630	82
3592030	-93
3592407	26
3592420	56
3592830	162
3593189	-111
3593202	-125
3593593	-509
3593923	-618
3593936	-626
3594324	-472
3594689	-319
3594702	-331
3595096	-294
3595469	-320
3595816	-284
3595830	237
3596230	908
3596596	826
3596609	727
3597000	621
3597367	454
3597380	445
3597756	287
3597769	282
3598132	186
3598145	179
3598544	217
3598863	293
3598876	303
3599282	-9
3599654	9
3599667	-29
3600054	-538
3600067	-550
3600421	-539
3600434	-527
3600844	-480
3601204	-370
3601217	-324
3601622	-215
3602004	-309
3602017	-255
3602424	-300
3602437	-301
3602799	73
3602812	384
3603171	829
3603184	819
3603546	1027
3603559	1044
3603964	888
3603977	880
3604369	469
3604382	451
3604798	202
3604811	203
3605202	132
3605215	133
3605618	143
3605631	141
3606011	248
3606024	249
3606413	282
3606426	265
3606810	74
3606823	62
3607231	99
3607244	70
3607633	122
3607646	135
3608049	90
3608062	101
3608445	152
3608458	144
3608873	125
3609248	151
3609261	148
3609647	107
3609660	77
3610028	46
3610041	68
3610418	13
3610431	17
3610801	265
3610814	276
3611192	289
3611205	287
3611590	166
3611603	165
3611975	90
3611988	90
3612362	112
3612375	118
3612745	146
3612758	141
3613129	121
3613142	122
3613431	118
3613444	121
3613831	60
3613844	62
3614209	220
3614222	227
3614589	278
3614602	271
3614983	107
3614996	104
3615361	19
3615374	15
3615755	6
3615768	16
3616149	140
3616531	111
3616545	114
3616883	104
3616896	103
3617263	77
3617276	73
3617642	271
3617655	286
3618025	467
3618038	469
3618424	275
3618760	81
3618773	77
3619162	26
3619175	28
3619552	27
3619565	30
3619952	0
3619965	-7
3620343	-2
3620356	4
3620759	35
3620772	41
3621087	20
3621100	22
3621474	86
3621487	88
3621890	232
3621903	237
3622299	169
3622312	169
3622711	71
3622724	71
3623129	15
3623142	15
3623519	110
3623532	107
3623909	110
3623922	111
3624297	62
3624310	64
3624682	86
3624695	97
3625077	383
3625090	384
3625432	289
3625445	281
3625841	62
3625854	50
3626230	-69
3626243	-79
3626620	100
3626632	104
3627011	209
3627024	202
3627404	97
3627417	96
3627786	19
3627799	16
3628183	6
3628196	4
3628561	15
3628574	15
3628946	16
3628959	16
3629321	33
3629334	34
3629698	45
3629711	44
3630077	15
3630090	13
3630465	243
3630478	252
3630867	312
3630880	311
3631248	136
3631261	130
3631655	-27
3631668	-32
3631974	-60
3631987	-58
3632240	158
3632253	174
3632670	571
3632683	575
3633107	314
3633120	307
3633547	9
3633560	2
3633971	5
3633984	6
3634396	34
3634409	31
3634796	11
3634809	12
3635205	-51
3635219	-53
3635622	-45
3636016	89
3636421	111
3636792	88
3636805	79
3637204	-20
3637574	-50
3637587	-40
3637980	312
3637993	319
3638353	283
3638366	286
3638751	103
3638764	92
3639088	0
3639101	-3
3639507	64
3639520	62
3639887	49
3639900	50
3640278	17
3640291	20
3640652	-24
3640665	-21
3641049	-39
3641062	-35
3641458	-49
3641471	-42
3641838	95
3641851	99
3642255	181
3642268	184
3642623	151
3642636	148
3643029	50
3643395	9
3643408	15
3643806	148
3643819	146
3644180	86
3644193	84
3644582	33
3644595	30
3645382	84
3645772	60
3646157	44
3646504	24
3646817	26
3646830	26
3647274	39
3647676	49
3648084	71
3648477	101
3648888	219
3649284	194
3649673	85
3650033	30
3650440	228
3650835	405
3651227	188
3651590	111
3651973	148
3652348	64
3652757	-7
3653132	-24
3653517	24
3653887	63
3654243	412
3654256	414
3654652	289
3655004	115
3655416	-45
3655779	-18
3656140	-13
3656511	-134
3656897	108
3657275	354
3657678	513
3658077	337
3658485	79
3658878	117
3659276	406
3659677	228
3660054	99
3660436	17
3660719	20
3660732	20
3661164	-38
3661555	-112
3661952	-147
3662342	-129
3662737	-71
3663120	-40
3663507	6
3663904	13
3664293	-362
3664698	-313
3665069	96
3665422	17
3665436	-68
3665822	194
3666189	84
3666580	-632
3666937	-140
3666950	-87
3667333	17
3667678	-177
3668068	-142
3668454	-78
3668814	-338
3668827	-218
3669232	-557
3669612	86
3670016	-23
3670271	-57
3670284	-49
3670747	1052
3670760	1070
3671165	720
3671567	366
3671580	413
3671985	334
3672360	184
3672373	125
3672778	121
3673177	216
3673601	367
3673989	241
3674380	140
3674740	27
3674753	1
3675148	-54
3675525	64
3675927	363
3676311	334
3676698	143
3677082	67
3677482	-322
3677888	-51
3678200	213
3678632	311
3679037	323
3679418	151
3679667	267
3679680	297
3680139	651
3680538	321
3680974	39
3681377	37
3681801	6
3682176	13
3682591	19
3682979	-210
3683364	639
3683783	683
3684188	334
3684603	112
3685005	49
3685406	1
3685789	203
3686184	366
3686577	186
3686992	124
3687378	95
3687766	126
3688163	100
3688592	96
3688983	37
3689369	39
3689766	-20
3690145	-5
3690522	-2
3690897	44
3691252	176
3691555	439
3691996	547
3692406	252
3692845	27
3693236	-7
3693639	-34
3694033	-6
3694446	232
3694833	155
3695233	42
3695584	1
3696006	44
3696387	74
3696823	24
3697199	-14
3697600	22
3698003	-2
3698387	119
3698796	150
3699186	60
3699571	-34
3699934	-17
3700342	-24
3700704	23
3701089	130
3701488	107
3701880	62
3702283	86
3702664	111
3703062	100
3703406	59
3703791	11
3704179	22
3704559	85
3704955	124
3705345	132
3705727	92
3706119	50
3706519	99
3706929	68
3707330	17
3707719	-34
3708129	71
3708504	206
3708895	139
3709183	70
3709421	39
3709652	115
3710064	128
3710303	-94
3710522	-101
3710737	124
3710949	147
3711156	188
3711169	184
3711405	173
3711418	179
3711782	192
3712039	315
3712268	395
3712526	387
3712942	220
3713295	-54
3713308	-47
3713673	-1850
3714072	-625
3714436	-1665
3714824	188
3715225	-198
3715593	-1027
3716003	-308
3716016	-348
3716395	66
3716793	-695
3716807	-860
3717163	-2705
3717587	1026
3717979	1049
3718359	866
3718787	633
3719172	304
3719576	443
3719978	462
3720406	281
3720767	232
3721190	212
3721584	135
3722007	38
3722405	62
3722797	90
3723171	97
3723533	177
3723963	173
3724369	101
3724799	64
3725146	170
3725560	598
3725975	399
3726411	140
3726817	143
3727228	50
3727622	26
3728035	56
3728397	35
3728811	50
3729174	-284
3729550	-714
3729944	-429
3730337	-170
3730722	312
3731122	322
3731510	271
3731917	294
3732288	326
3732699	221
3733077	-1702
3733460	-1079
3733850	114
3734165	265
3734592	-1753
3735402	1324
3735785	356
3736194	445
3736629	221
3737032	174
3737467	276
3737858	-125
3738264	-198
3738650	-302
3739054	-320
3739449	-23
3739868	-779
3740268	-895
3740676	-530
3741066	-1300
3741480	4
3741847	788
3742238	-91
3742619	-563
3743006	-874
3743408	-619
3743781	-891
3744185	-1304
3744566	-969
3744975	-1107
3745349	-954
3745757	-928
3746150	-632
3746546	-942
3746930	-521
3747335	-531
3747718	-506
3748109	-407
3748498	-160
3748893	-323
3749270	-134
3749673	-91
3750072	48
3750485	-116
3750874	41
3751283	-251
3751661	-185
3752061	97
3752414	-115
3752789	-481
3753166	-222
3753542	-277
3753944	-35
3754337	158
3754728	139
3755094	-366
3755539	580
3755809	869
3755963	2120
3755974	2392
3756240	3143
3756637	2838
3757066	1427
3757444	-1698
3757863	-1573
3758253	917
3758658	544
3759047	1817
3759449	1434
3759844	1271
3760241	6
3760617	1034
3760998	399
3761371	100
3761774	1176
3762150	956
3762539	713
3762907	330
3763187	157
3763471	352
3763711	322
3763934	289
3764152	-246
3764375	-45
3764783	588
3765038	169
3765270	497
3765501	785
3765731	-1212
3765952	-1445
3766446	163
3766850	766
3767247	197
3767637	-1873
3768052	-1821
3768438	-1861
3768741	-1830
3768982	-1305
3769199	-1815
3769410	-1192
3769617	-1100
3769856	-1030
3770077	-1079
3770328	-899
3770557	-581
3770781	-279
3771026	-842
3771419	-864
3771666	-942
3772101	-922
3772515	-723
3772888	-779
3773290	-672
3773659	-182
3774071	-505
3774449	-592
3774842	-105
3775123	-193
3775369	-203
3775609	221
3776025	863
3776303	913
3776738	1131
3777160	1212
3777580	1799
3777860	3043
3778352	2556
3778769	1244
3778783	847
3779235	1605
3779667	1298
3780092	950
3780524	738
3780937	739
3781350	-1777
3781737	-791
3782117	855
3782522	-771
3782907	-780
3783290	-9
3783622	-366
3784081	504
3784463	1326
3784840	1286
3785248	806
3785623	-198
3786388	917
3786759	614
3787165	-1573
3787862	-1770
3787946	-616
3788331	1441
3788715	-226
3789114	766
3789484	119
3789882	504
3790268	-1103
3790664	-1119
3791007	1067
3791706	807
3792113	-2088
3792127	-1716
3792569	923
3792978	840
3793424	-82
3793817	-1669
3794237	1033
3794576	220
3795007	715
3795425	738
3795857	1103
3796264	972
3796708	745
3797508	672
3797910	577
3798294	493
3798681	427
3799049	435
3799450	282
3799811	221
3800171	172
3800560	265
3800952	267
3801367	248
3801758	66
3802123	-4833
3802188	-4958
3802360	744
3802574	1066
3802783	1416
3803004	2448
3803246	1838
3803497	1021
3804511	-422
3804918	-1822
3805739	-647
3806151	172
3806574	286
3806977	39
3807411	-615
3807760	-789
3808043	-156
3808335	-779
3808781	381
3809654	-180
3809897	315
3810137	-842
3810357	417
3810581	345
3810792	1353
3811245	-122
3811705	-1139
3812154	711
3812561	480
3812980	-707
3813369	187
3813384	180
3813800	870
3814212	155
3814554	533
3814961	-535
3815365	-568
3815565	-1990
3815795	-1420
3816191	238
3816614	250
3817017	-1653
3817410	-925
3817716	-1250
3817810	1139
3817823	-42
3818215	-791
3818626	-842
3819019	365
3819414	-1132
3819782	-306
3819794	-878
3820178	-1468
3820570	1128
3820950	799
3821361	67
3821680	355
3821698	351
3821768	57
3822091	-851
3822480	-268
3823297	11
3823652	575
3824041	49
3824424	-688
3824814	-1274
3825206	997
3825221	53
3825362	-585
3825408	548
3825626	-93
3826040	-1119
3826838	-242
3827404	-2005
3827644	-2110
3828016	405
3828357	228
3828730	-221
3828743	482
3829112	214
3829495	1304
3829896	-213
3830259	128
3830274	-1208
3830616	728
3830629	1558
3830898	1820
3830916	-655
3831402	387
3831678	1045
3832105	1450
3832892	-3218
3833259	-1440
3833937	734
3833976	-112
3834003	-180
3834030	-27
3834049	406
3834858	1197
3835257	453
3836067	-2496
3836103	-2154
3836122	-231
3836189	1679
3836473	-1639
3836840	-1030
3837175	-768
3837232	-712
3837585	380
3837916	563
3838036	-10
3838064	-53
3838298	1008
3838463	-546
3838897	191
3839547	2837
3839665	866
3840034	-1411
3840331	-721
3840735	-2241
3841532	-1581
3841903	-528
3842312	-2
3842673	-1457
3843471	-779
3843845	-1416
3844257	-430
3844645	562
3845046	-294
3845412	-1438
3845812	1642
3845825	1814
3846193	12
3846311	-871
3846580	410
3846974	1187
3847360	960
3847764	70
3848048	-23
3848804	589
3849215	1140
3849607	-404
3849974	-841
3850373	-1049
3850738	81
3851117	800
3851487	1256
3851788	257
3852039	1132
3852279	438
3852436	232
3852504	278
3852702	-1522
3852720	-1034
3852936	-1636
3853546	1072
3853799	-925
3853833	-936
3854038	2000
3854257	1249
3854468	2258
3854663	1492
3854678	1384
3855105	642
3856329	-1366
3856735	-662
3856950	-833
3857004	-1046
3857555	66
3857953	1984
3858761	967
3859044	414
3859480	-827
3859625	-384
3859759	-914
3859797	-2066
3859821	-352
3859889	1423
3860360	-1741
3860728	1860
3861104	345
3861149	-1624
3861545	-1429
3861917	-552
3862332	957
3862718	73
3863142	471
3863536	-435
3863705	676
3863767	-1388
3863788	-450
3863865	1123
3863877	1384
3863964	-699
3864347	-1432
3864400	-1242
3864415	-809
3864427	-979
3864595	1620
3864621	-191
3864764	121
3865149	-1004
3865535	-1413
3865936	-1879
3866311	136
3866695	1512
3867066	782
3867078	1687
3867468	1849
3868636	1886
3869010	-130
3869799	792
3870189	943
3870958	-610
3871730	27
3872118	1190
3872503	655
3872853	-521
3873261	-337
3874051	1477
3874439	1011
3874836	-17
3875026	33
3875041	-1423
3875228	59
3875272	-969
3875537	154
3875624	-1749
3875778	-3472
3875790	-1406
3875833	-1982
3876006	-1194
3876097	-1592
3876233	-1829
3876255	-889
3876404	213
3876741	190
3876817	-2624
3876835	-2128
3876905	-1148
3876983	-694
3877046	505
3877150	-2880
3877163	-3392
3877947	2156
3878326	1766
3878710	613
3879129	81
3879513	-125
3879525	352
3880763	-418
3881145	886
3881548	239
3881946	-1045
3882339	210
3882715	-532
3883438	972
3883833	-933
3884219	1563
3884608	1671
3885448	-506
3885539	-1560
3885867	-2074
3886283	-262
3886697	-31
3887132	301
3887523	764
3887945	-610
3888336	126
3888738	-871
3888750	-1037
3889146	-2036
3889923	-1626
3890321	-517
3891111	-940
3891535	1555
3891882	-661
3892265	529
3893034	-1990
3893087	-2142
3893412	792
3893777	2160
3894187	1953
3894974	563
3895359	1051
3896156	-565
3896548	-601
3896583	956
3896954	-1547
3897336	-590
3897719	-754
3898032	-367
3898453	403
3898807	599
3899235	253
3899643	972
3900059	-410
3900432	1309
3900804	59
3901051	110
3901273	-65
3901500	1664
3901821	1452
3902275	1158
3902715	914
3903147	779
3903554	650
3903982	635
3904387	569
3904806	230
3905218	-247
3906015	475
3906393	-142
3906813	1095
3907175	559
3907605	169
3908798	434
3909048	935
3909503	697
3909915	629
3910359	687
3910783	-809
3911216	-692
3911610	-1082
3912045	-129
3912445	584
3912858	461
3913251	438
3913660	-182
3914053	-1192
3914432	-1345
3914816	15
3915202	-1299
3915589	329
3915965	-200
3916377	1649
3916761	1499
3917147	326
3917547	-87
3917964	89
3918325	-207
3918338	-838
3918745	573
3919134	727
3919532	994
3919545	857
3919870	570
3920265	-637
3920543	-1560
3920775	380
3920997	-805
3921230	-253
3921692	-2776
3921707	-2460
3921804	-2789
3921866	-2336
3921927	-2062
3922128	-1881
3922141	-1092
3922232	-2077
3922577	1252
3922591	1149
3922992	839
3923005	1288
3923440	-39
3923841	1503
3924257	-1337
3924269	-1265
3924670	1178
3925087	737
3925497	509
3925886	421
3926286	1255
3926649	1248
3927062	-512
3927453	737
3927875	458
3928204	321
3928282	737
3928672	726
3928685	534
3929087	-1679
3929447	1040
3929850	924
3930220	715
3930232	671
3930648	-1230
3930958	-833
3931362	-61
3931775	168
3932177	325
3932580	-1384
3932594	-1126
3932981	85
3933387	68
3933752	-317
3933765	-244
3934180	-607
3934555	-895
3934568	-1337
3934978	-1128
3935363	1788
3935736	474
3935749	755
3936149	1271
3936531	1003
3936545	764
3936955	642
3937338	578
3937757	-127
3938095	-1564
3938108	-1465
3938494	-1327
3938909	-1589
3939309	-960
3939322	-1239
3939724	338
3940118	784
3940540	861
3940928	666
3941337	-213
3941715	-217
3942102	314
3942496	-313
3942885	-371
3943262	373
3943627	-200
3943641	112
3944041	967
3944426	270
3944858	-1460
3945234	-1165
3945626	-1030
3946038	-439
3946412	-1044
3946425	-896
3946835	-574
3947143	265
3947571	-625
3947950	-368
3948360	-180
3948752	-490
3949147	293
3949545	-1326
3949558	-1168
3949939	-254
3950345	629
3950635	1193
3951054	1012
3951438	-341
3951451	-450
3951847	416
3952219	967
3952232	1048
3952623	624
3953037	52
3953405	-173
3953820	1114
3954199	-20
3954601	1092
3954979	702
3955385	658
3955754	442
3956120	146
3956529	128
3956893	124
3957204	194
3957449	993
3957685	-273
3957916	405
3958179	-244
3958648	367
3959100	923
3959526	216
3959947	1886
3960382	1398
3960793	361
3961222	672
3961622	-950
3961635	-246
3962051	1051
3962463	-47
3962857	-1785
3963268	649
3963631	135
3963643	-298
3963897	1069
3964130	695
3964344	945
3964357	1091
3964803	181
3965254	60
3965699	-116
3966130	588
3966534	-392
3966969	-47
3967372	-559
3967777	158
3968173	497
3968557	1317
3968570	1205
3968970	1224
3969344	-20
3969759	-965
3970167	-616
3970600	-1385
3970975	-753
3970988	-787
3971407	-28
3971776	-319
3971789	-306
3972198	1850
3972572	1331
3972972	1387
3973344	591
3973737	766
3974131	30
3974512	-762
3974923	-269
3975298	852
3975311	498
3975728	-539
3976101	-215
3976487	-716
3976500	-262
3976884	-388
3976897	-516
3977269	-164
3977653	-349
3978008	-462
3978344	-524
3978752	-549
3979157	-203
3979578	881
3979964	-32
3980384	-633
3980777	-269
3981173	-217
3981589	-1015
3981972	1641
3982373	1795
3982783	-796
3983074	654
3983484	818
3983916	172
3984316	148
3984752	-626
3985151	-707
3985552	-326
3985931	-415
3985946	-87
3986349	158
3986362	26
3986780	151
3986794	-36
3987212	349
3987645	-280
3988028	519
3988040	-43
3988453	1776
3988832	-97
3989231	1409
3989630	1096
3989983	892
3989996	78
3990390	345
3990701	-1041
3990715	-279
3991113	-621
3991501	-1062
3991889	228
3992263	2423
3992275	2441
3992616	-393
3993028	-166
3993324	-109
3993775	159
3994143	-673
3994156	-785
3994582	-568
3994967	778
3995365	55
3995751	-869
3996107	-1489
3996120	-1231
3996523	-5
3996925	-913
3997326	440
3997727	-140
3998127	-2136
3998140	-1876
3998530	-1913
3998936	-1100
3999321	212
3999705	840
4000079	85
4000485	1989
4000883	-486
4001290	370
4001698	337
4002037	-199
4002050	271
4002466	1080
4002867	657
4003302	-112
4003695	12
4004094	1460
4004532	-1034
4004905	-1389
4005333	-1450
4005737	-1312
4006168	-746
4006517	-359
4006530	-404
4006955	-1361
4007349	-265
4007763	891
4008155	139
4008168	108
4008562	-982
4008577	-1322
4008950	-1462
4009343	-988
4009753	-236
4010141	-964
4010154	-1033
4010422	-506
4010706	-869
4011158	235
4011580	-557
4012017	-764
4012397	-710
4012410	-903
4012827	-856
4013215	-459
4013611	-18
4014015	1484
4014384	1569
4014793	1263
4015174	683
4015578	537
4015848	578
4016287	370
4016680	-1285
4016692	-1559
4017127	-470
4017537	-454
4017945	-220
4018333	-1034
4018754	-1129
4019129	-1203
4019516	-928
4019529	-749
4019913	-497
4019926	-510
4020305	-557
4020318	-688
4020710	-867
4021084	-1187
4021513	-166
4021888	479
4022202	892
4022641	2400
4023006	282
4023383	-714
4023395	-757
4023783	-450
4024076	-331
4024494	383
4024894	622
4025307	1282
4025711	1318
4026139	693
4026531	2582
4026939	1354
4026952	1697
4027322	1814
4027718	866
4028126	-367
4028504	-549
4028517	-401
4028933	-46
4029321	73
4029715	857
4030093	140
4030505	-160
4030895	-75
4031301	396
4031712	272
4032128	574
4032548	1132
4032561	502
4032966	817
4033400	1573
4033782	975
4033795	584
4034208	482
4034609	334
4034997	-13
4035412	71
4035794	81
4036207	504
4036444	603
4036665	613
4036879	719
4037091	563
4037104	669
4037537	344
4037975	325
4037988	344
4038438	897
4038825	698
4038838	699
4039259	121
4039656	-23
4040082	343
4040484	316
4040898	281
4041319	363
4041719	338
4042102	345
4042342	381
4042594	372
4043065	491
4043514	90
4043932	112
4044380	241
4044789	212
4045217	389
4045627	323
4046023	176
4046429	285
4046818	425
4047225	294
4047521	336
4047938	-260
4048321	132
4048744	275
4049164	252
4049560	607
4094089	173
4094599	5885
4094622	14283
4095078	4977
4095272	4136
4095466	3611
4095658	3008
4095849	2440
4096039	1868
4096228	1331
4096416	898
4096606	519
4096796	232
4096993	67
4097202	-75
4097427	-155
4097669	-195
4097930	-185
4098154	-175
4098378	-193
4098632	-244
4099027	-280
4099287	-242
4099542	-247
4099960	-251
4100347	-250
4100621	-261
4101058	-316
4101460	-277
4101834	-275
4102252	-266
4102528	-229
4102939	-271
4103362	-250
4103736	-242
4104169	-247
4104575	-239
4104987	-236
4105394	-244
4105821	-192
4106233	-177
4106681	-127
4107101	-116
4107521	-108
4107940	-125
4108355	-101
4108701	-104
4108974	-151
4109412	-180
4109832	-141
4110262	-138
4110696	-108
4111084	-90
4111523	-53
4111809	-29
4112238	-45
4112496	-7
4112738	-9
4113172	-20
4113450	-18
4113717	-25
4114150	-23
4114521	-24
4114920	-14
4115165	-7
4115436	-17
4115858	-18
4116194	-29
4116600	-29
4116870	-36
4117285	-32
4117544	-21
4117961	-14
4118240	15
4118498	0
4118916	11
4119206	30
4119505	28
4119908	12
4120167	6
4120432	27
4120823	11
4121086	8
4121345	-7
4121585	60
4121811	68
4122037	68
4122461	6
4122801	-5
4123105	8
4123474	33
4123806	42
4124124	27
4124461	44
4124813	37
4125180	31
4125517	12
4125869	27
4126202	53
4126580	56
4126908	50
4127309	17
4127579	24
4128016	48
4128285	35
4128722	15
4128983	23
4129296	9
4129690	16
4129983	8
4130348	17
4130617	6
4130878	31
4131149	34
4131429	28
4131692	59
4131989	71
4132391	30
4132732	45
4133002	45
4133269	42
4133528	70
4133934	42
4134204	28
4134453	15
4134714	19
4134968	17
4135389	13
4135656	13
4135902	4
4136221	13
4136495	17
4136798	23
4137076	11
4137499	34
4137748	53
4137983	5
4138236	26
4138497	39
4138945	48
4139209	22
4139470	20
4139889	17
4140148	30
4140375	50
4140602	41
4140827	45
4141078	30
4141307	53
4141534	56
4141758	66
4141987	67
4142211	62
4142437	71
4142660	74
4142907	75
4143147	64
4143382	56
4143628	42
4143879	41
4144153	49
4144399	63
4144657	57
4144907	56
4145161	24
4145421	30
4145678	46
4145954	-35
4146193	26
4146420	11
4146637	1380
4146729	157
4146850	1568
4147059	3250
4147263	2874
4147464	2481
4147662	2171
4147857	1868
4148052	1573
4148249	1160
4148457	914
4148685	502
4148931	655
4149153	582
4149376	265
4149622	-27
4150006	-134
4150274	-262
4150520	-448
4150919	-559
4151240	-359
4151508	-400
4151921	-393
4152258	-149
4152573	-120
4152974	-185
4153247	-43
4153511	-90
4153929	-156
4154302	-24
4154609	-80
4154968	-72
4155265	6
4155578	-86
4155984	-63
4156240	-24
4156492	-80
4156910	-123
4157225	-67
4157484	-71
4157743	-101
4158150	-78
4158422	-20
4158676	-72
4159083	-119
4159429	-57
4159743	-104
4160042	-78
4160311	-42
4160557	-68
4160815	-115
4161068	-127
4161325	-102
4161751	-134
4162058	-69
4162327	-94
4162636	-112
4163023	-57
4163286	-57
4163549	-91
4163944	-45
4164193	-6
4164425	-9
4164699	-28
4165113	16
4165493	-49
4165901	-87
4166181	-29
4166427	-28
4166689	-72
4167109	-72
4167450	-46
4167828	-74
4168204	-10
4168473	-31
4168820	-56
4169187	-28
4169558	-46
4169889	-23
4170236	-35
4170547	4
4170873	-27
4171260	-36
4171563	-21
4171831	-21
4172228	-10
4172540	13
4172785	33
4173054	-3
4173478	-14
4173846	-16
4174199	-24
4174516	-13
4174841	-14
4175158	4
4175492	-7
4175833	-10
4176162	-5
4176503	-23
4176841	-24
4177188	-10
4177531	12
4177877	5
4178228	15
4178558	39
4178915	24
4179262	49
4179592	23
4179930	20
4180212	28
4180483	-10
4180883	1
4181164	2
4181422	5
4181672	31
4181914	24
4182164	2
4182449	20
4182689	33
4182932	8
4183194	22
4183436	49
4183665	41
4183888	23
4184112	-36
4184341	-23
4184583	-7
4185311	74
4185570	73
4185829	55
4186217	52
4186486	53
4186732	50
4186989	48
4187279	41
4187571	52
4187853	24
4188241	26
4188492	56
4188720	35
4188966	41
4189359	64
4189701	48
4190045	56
4190377	45
4190710	39
4191053	42
4191382	46
4191706	35
4192048	15
4192361	22
4192705	34
4193051	39
4193389	22
4193698	44
4194028	39
4194375	35
4194646	62
4194883	53
4195113	39
4195365	45
4195759	42
4196077	37
4196350	30
4196657	31
4197050	20
4197320	57
4197589	23
4197990	19
4198288	56
4198546	52
4198827	-57
4199232	-50
4199476	20
4199725	33
4199989	23
4200261	30
4200537	45
4200976	4
4201377	42
4201696	93
4202034	78
4202374	56
4202709	31
4203082	59
4203427	82
4203782	89
4204127	74
4204459	50
4204819	46
4205199	66
4205559	74
4205976	79
4206350	60
4206700	52
4207056	42
4207384	64
4207737	42
4208091	66
4208461	33
4208823	41
4209138	42
4209455	13
4209712	5
4209945	-50
4210176	-58
4210412	37
4210870	62
4211189	31
4211481	55
4211856	55
4212153	63
4212413	49
4212651	73
4212883	90
4213115	89
4213347	82
4213571	67
4213797	34
4214021	35
4214247	62
4214473	81
4214701	66
4214935	66
4215172	68
4215408	55
4215646	41
4215895	74
4216130	90
4216361	56
4216603	-5
4216851	62
4217246	27
4217622	55
4217876	67
4218122	45
4218386	38
4218668	68
4218909	84
4219159	67
4219585	59
4219839	78
4220096	50
4220508	23
4220769	59
4221003	57
4221246	55
4221665	70
4221937	85
4222190	67
4222502	59
4222765	75
4223041	49
4223461	17
4223804	73
4224067	84
4224363	34
4224752	70
4225042	68
4225326	48
4225602	46
4225866	49
4226274	53
4226607	74
4226886	74
4227187	60
4227537	55
4227807	28
4228083	55
4228356	59
4228618	67
4228891	41
4229193	42
4229468	66
4229721	82
4230226	67
4230627	57
4231007	48
4231293	55
4231529	77
4231772	86
4232200	64
4232471	84
4232727	62
4233151	49
4233486	50
4233823	16
4234152	30
4234457	38
4234761	33
4235047	71
4235388	50
4235712	74
4236017	60
4236365	53
4236643	45
4236984	44
4237326	66
4237644	81
4237969	89
4238276	70
4238602	45
4238921	49
4239210	41
4239456	46
4239709	35
4239991	26
4240420	31
4240758	38
4241062	53
4241406	62
4241693	71
4241944	73
4242208	59
4242629	78
4242951	68
4243247	79
4243500	81
4243757	53
4244039	66
4244296	84
4244561	53
4244868	63
4245155	74
4245456	46
4245736	-24
4246001	48
4246290	39
4246561	66
4246831	42
4247117	39
4247380	71
4247654	66
4247960	84
4248227	68
4248509	52
4248806	101
4249087	95
4249363	88
4249624	108
4249920	4
4250271	56
4250566	-13
4250837	73
4251097	62
4251368	52
4251650	70
4252067	70
4252364	67
4252674	64
4252956	84
4253233	74
4253642	88
4253943	74
4254209	85
4254454	93
4254704	73
4254975	85
4255225	81
4255483	-2
4255749	50
4255993	82
4256231	-570
4256456	224
4256671	-6500
4256879	-4891
4257082	4303
4257282	8180
4257478	7552
4257672	6346
4257865	5393
4258058	4474
4258251	3595
4258440	2890
4258632	2516
4258823	2004
4259014	1696
4259204	1332
4259401	986
4259620	647
4259857	231
4260098	107
4260449	-122
4260793	-260
4261079	-225
4261420	-163
4261809	-151
4262198	-126
4262474	-29
4262892	-21
4263272	55
4263684	41
4264070	46
4264470	50
4264872	19
4265165	49
4265613	35
4266007	49
4266430	42
4266732	45
4267162	38
4267436	53
4267880	12
4268279	12
4268689	13
4269096	23
4269370	38
4269791	-12
4270156	2
4270548	-29
4270946	-36
4271199	12
4271614	-3
4272009	-10
4272364	11
4272767	27
4273163	30
4273422	23
4273821	20
4274199	1
4274602	-16
4274914	23
4275338	12
4275657	23
4275948	30
4276365	8
4276716	-58
4277083	9
4277468	-20
4277733	-5
4278142	-13
4278527	-17
4278792	13
4279210	41
4279606	34
4279875	64
4280301	30
4280681	8
4280941	35
4281369	-5
4281765	16
4282165	20
4282566	4
4282848	26
4283249	33
4283643	22
4283923	38
4284338	17
4284731	28
4285018	26
4285415	9
4285789	-7
4286162	31
4286527	48
4286877	44
4287215	60
4287606	53
4287861	107
4288276	56
4288564	57
4288954	82
4289325	48
4289586	48
4289863	27
4290268	8
4290627	31
4291007	26
4291368	44
4291668	60
4292070	34
4292362	62
4292745	46
4293139	48
4293432	67
4293709	70
4294147	37
4294445	77
4294851	82
4295240	57
4295508	104
4295920	44
4296274	11
4296518	39
4296745	35
4297002	33
4297425	55
4297819	-16
4298217	30
4298597	52
4298978	39
4299364	49
4299657	82
4300056	60
4300424	73
4300774	62
4301154	49
4301480	81
4301863	48
4302210	81
4302545	68
4302918	48
4303244	48
4303585	45
4303918	46
4304265	35
4304624	31
4304971	38
4305340	55
4305686	46
4306083	49
4306418	74
4306776	63
4307125	92
4307487	70
4307847	52
4308221	84
4308623	52
4308903	52
4309317	26
4309598	55
4309897	38
4310328	30
4310576	67
4310880	45
4311309	37
4311699	49
4312112	48
4312402	88
4312805	79
4313192	57
4313452	99
4313854	57
4314231	52
4314512	86
4314903	59
4315283	62
4315566	73
4315962	45
4316324	78
4316692	70
4317077	63
4317418	66
4317799	66
4318121	81
4318508	55
4318894	62
4319171	86
4319593	56
4319863	73
4320095	95
4320547	63
4320964	66
4321386	66
4321791	55
4322207	55
4322596	55
4322997	41
4323258	49
4323495	81
4323938	53
4324336	27
4324759	45
4325148	68
4325544	57
4325940	60
4326317	95
4326704	85
4327086	75
4327443	96
4327842	93
4328225	74
4328560	68
4328956	37
4329347	41
4329722	62
4330113	41
4330478	59
4330818	35
4331208	42
4331482	75
4331899	55
4332272	82
4332527	95
4332767	81
4333216	38
4333617	30
4334043	71
4334383	104
4334788	38
4335193	55
4335581	64
4335987	44
4336275	78
4336675	50
4337064	53
4337324	86
4337732	62
4338112	57
4338349	101
4338574	68
4338811	45
4339066	71
4339512	53
4339950	46
4340347	73
4340741	78
4341117	73
4341509	-10
4341906	22
4342280	41
4342677	19
4343057	42
4343386	64
4343763	41
4344142	49
4344501	78
4344880	74
4345202	92
4345499	90
4345854	52
4346250	55
4346656	11
4347051	30
4347476	63
4347854	89
4348253	63
4348654	55
4349019	81
4349408	46
4349816	38
4350199	68
