-32768	-32768
-8340	-8340
-32768	-32768
-32768	-32768
4530	4530
-32768	-32768
2601	2601
26850	26850
15919	15919
5455	5455
-6872	-6872
32767	32767
-3565	-3565
-10367	-10367
32767	32767
-32768	-32768
-11082	-11082
-32768	-32768
14859	14859
-32768	-32768
17359	17359
32767	32767
5606	5606
-32768	-32768
13270	13270
-32768	-32768
-32768	-32768
-32768	-32768
-32768	-32768
-28752	-28752
32767	32767
-32768	-32768
-32768	-32768
30700	30700
-13707	-13707
8576	8576
-32768	-32768
-32768	-32768
-32768	-32768
32767	32767
-32768	-32768
-12497	-12497
32767	32767
-32768	-32768
-32768	-32768
15120	15120
1537	1537
-32768	-32768
32767	32767
-32768	-32768
-3189	-3189
32767	32767
32767	32767
12860	12860
-32768	-32768
32767	32767
46121	19314
46139	9812
69169	-32768
90046	74
90300	60
90549	70
90767	84
91017	73
91296	20
91551	8
91794	-2
92082	-13
92373	-3
92639	88
92893	71
93155	33
93439	37
93679	57
93917	74
94166	64
94392	55
94605	45
94857	125
95075	169
95279	168
95496	126
95755	23
96020	-63
96281	-79
96494	-63
96704	-20
96928	52
97143	52
97376	63
97581	111
97805	119
98063	124
98284	124
98541	103
98786	108
99008	139
99216	147
99435	137
99651	128
99899	104
100169	95
100429	75
100674	71
100916	104
101137	136
101351	114
101602	89
101887	90
102148	151
102364	159
102597	139
102862	121
103109	159
103330	172
103587	130
103885	86
104147	135
104403	112
104687	84
104956	85
105192	121
105444	90
105738	60
106034	33
106297	55
106554	37
106831	16
107112	33
107391	79
107645	75
107921	50
108200	42
108476	78
108730	119
108967	96
109230	44
109495	30
109729	20
109957	16
110221	-17
110449	-28
110720	-76
111003	-93
111279	-51
111525	-2
111774	24
112069	8
112354	70
112610	111
112887	118
113175	101
113444	119
113697	129
113976	112
114258	115
114518	151
114776	191
115049	201
115319	172
115575	143
115846	99
116113	77
116378	106
116619	124
116871	125
117139	97
117407	96
117662	129
117937	141
118224	135
118506	128
118769	129
119055	111
119341	100
119612	118
119856	117
120112	100
120371	86
120634	104
120905	112
121191	95
121465	82
121703	103
121936	23
122156	37
122383	63
122608	78
122813	81
123023	110
123247	137
123459	161
123663	162
123885	140
124117	100
124339	63
124547	89
124770	57
124995	8
125212	-6
125418	-27
125635	-57
125843	-54
126035	39
126249	90
126482	56
126735	33
126971	79
127217	96
127458	101
127674	119
127901	97
128127	86
128337	99
128541	89
128764	99
128993	108
129200	126
129424	28
129659	-2
129891	5
130107	19
130317	27
130541	52
130754	75
130968	96
131211	114
131465	118
131698	132
131952	107
132214	121
132467	117
132694	125
132908	115
133143	86
133402	66
133694	45
133949	42
134195	42
134459	45
134734	33
135007	26
135237	46
135475	71
135721	84
135966	84
136186	56
136430	5
136701	-29
136947	-61
137212	-86
137482	-116
137735	-51
137968	-36
138223	-43
138490	-39
138735	-12
138975	-16
139236	-35
139518	-31
139778	39
140014	95
140274	100
140569	93
140848	103
141109	119
141380	139
141655	133
141905	114
142141	71
142355	111
142560	82
142762	71
142969	92
143189	99
143483	67
143762	63
144026	63
144271	56
144508	55
144776	22
145051	2
145314	2
145554	26
145778	16
146015	-2
146286	-7
146563	37
146830	110
147055	125
147302	95
147576	55
147815	93
148032	112
148241	122
148448	110
148664	88
148946	56
149219	35
149454	46
149707	37
149969	26
150228	6
150463	-2
150700	4
150956	9
151245	-6
151514	28
151757	53
152014	60
152313	90
152582	126
152801	170
153029	124
153260	129
153498	124
153730	115
153935	101
154167	97
154398	74
154631	75
154847	67
155072	81
155285	70
155481	77
155694	16
155908	27
156115	20
156345	-7
156585	-9
156824	-5
157064	-5
157295	13
157521	31
157745	74
157966	112
158173	118
158376	125
158595	130
158838	122
159086	85
159312	90
159557	137
159792	130
160019	133
160224	146
160437	107
160641	84
160843	119
161049	119
161256	108
161452	86
161657	77
161855	92
162053	154
162261	115
162483	130
162706	158
162932	118
163149	74
163361	89
163563	89
163762	130
163962	122
164168	104
164380	79
164585	85
164796	70
164999	89
165201	166
165416	151
165626	114
165833	74
166029	28
166222	28
166412	84
166600	112
166790	114
166997	85
167223	114
167450	137
167658	150
167873	208
168075	190
168274	168
168478	141
168692	125
168900	107
169120	118
169349	122
169561	137
169759	147
169972	139
170196	125
170421	88
170624	59
170839	39
171058	68
171283	100
171507	86
171730	46
171948	9
172167	6
172381	22
172591	45
172790	53
172989	55
173188	50
173380	62
173585	97
173797	93
174006	112
174202	92
174407	121
174612	122
174810	114
175003	67
175191	88
175389	107
175592	100
175806	71
176012	28
176207	5
176411	-6
176616	-31
176821	-51
177019	-64
177211	-113
177401	-136
177590	-87
177771	-204
177952	-148
178137	-116
178318	-64
178500	-3
178677	17
178853	38
179032	79
179211	93
179387	107
179561	137
179734	157
179910	159
196845	862
197008	624
201314	-6409
201327	-8265
201501	-4096
225090	111
225326	150
225587	126
225858	103
226132	96
226378	81
226629	79
226893	57
227133	66
227362	88
227580	121
227825	63
228119	12
228396	13
228655	20
228885	33
229137	28
229406	26
229679	33
229932	23
230192	45
230469	42
230735	26
230991	1
231231	-25
231460	13
231683	92
231899	79
232187	48
232471	22
232737	46
232974	68
233233	42
233508	39
233780	22
234035	33
234254	31
234486	16
234752	27
235008	89
235237	132
235486	99
235756	73
236028	48
236257	73
236483	95
236738	78
237002	59
237263	90
237489	101
237737	53
237991	46
238236	75
238459	97
238709	84
238970	60
239229	74
239452	74
239691	70
239948	90
240204	104
240421	90
240650	67
240893	59
241128	62
241360	60
241609	33
241881	28
242147	57
242386	44
242641	17
242899	-31
243155	11
243386	39
243652	17
243935	24
244217	28
244485	70
244728	75
244978	41
245228	41
245481	67
245721	95
245940	95
246206	77
246487	75
246734	81
246943	84
247156	63
247374	38
247611	60
247827	74
248053	75
248264	67
248478	95
248693	42
248907	45
249114	37
249337	5
249580	22
249828	38
250057	46
250263	24
250485	15
250709	11
250941	33
251169	71
251395	45
251660	28
251922	11
252183	12
252418	34
252670	85
252929	70
253181	75
253420	75
253661	56
253928	12
254212	11
254465	20
254703	-29
254955	-3
255222	24
255465	74
255713	75
255974	39
256246	45
256493	70
256732	71
256987	97
257257	74
257490	53
257708	-20
257952	-25
258204	13
258448	62
258663	66
258895	55
259129	12
259362	34
259580	35
259810	6
260049	-38
260303	-43
260528	1
260772	13
261023	68
261275	111
261487	137
261704	140
261920	88
262145	66
262366	60
262591	45
262848	59
263112	60
263372	86
263608	35
263871	8
264144	-9
264414	27
264670	60
264912	9
265177	8
265443	17
265699	64
265926	63
266173	27
266444	19
266709	49
266955	66
267176	50
267411	49
267671	38
267922	56
268139	79
268367	62
268590	45
268810	-5
269046	-10
269266	-14
269518	-14
269785	2
270055	-17
270322	22
270563	53
270809	68
271072	88
271340	68
271584	78
271812	46
272041	45
272288	35
272539	78
272758	99
272996	96
273245	90
273507	45
273752	74
273974	42
274215	-9
274443	-24
274658	30
274861	44
275086	38
275315	2
275549	30
275766	28
276023	27
276291	27
276543	37
276779	-7
277026	-12
277279	-27
277530	13
277759	34
278001	33
278230	71
278453	52
278661	117
278866	107
279062	68
279268	24
279499	-16
279749	19
279978	20
280188	19
280413	-9
280643	-23
280875	-24
281105	-6
281338	60
281557	60
281793	31
282049	17
282301	24
282544	41
282761	33
282961	39
283172	39
283386	52
283615	6
283865	12
284080	-3
284316	-38
284574	-16
284822	74
285030	115
285249	73
285481	48
285724	8
285971	39
286204	89
286444	78
286706	93
286946	106
287157	73
287376	55
287608	64
287853	132
288077	103
288327	67
288578	48
288812	6
289075	-6
289348	50
289615	108
289852	46
290072	63
290295	39
290560	46
290834	53
291108	50
291350	100
291598	78
291854	66
292111	56
292362	122
292588	144
292837	135
293087	159
293312	135
293561	37
293820	-28
294093	-24
294355	39
294590	20
294847	-16
295104	-36
295361	-36
295598	57
295828	24
296086	38
296355	37
296626	31
296876	77
297130	62
297387	75
297642	96
297878	155
298090	128
298317	48
298545	11
298785	-13
299029	24
299250	77
299502	38
299764	-10
300032	-23
300270	15
300482	46
300709	-16
300952	-21
301212	17
301473	86
301706	143
301955	106
302222	73
302487	48
302737	107
302967	194
303197	129
303445	86
303705	45
303943	82
304196	24
304477	5
304741	12
304987	24
305211	-3
305441	-31
305662	-40
305882	-9
306104	33
306323	84
306529	100
306747	92
306981	68
307216	28
307448	19
307661	86
307863	89
308071	66
308282	49
308503	49
308722	37
308931	52
309138	17
309357	13
309577	-18
309802	-38
310029	-14
310239	16
310452	-12
310670	11
310891	48
311108	84
311316	150
311518	97
311723	73
311926	78
312135	60
312346	52
312554	144
312753	121
312949	74
313141	19
313338	-14
313557	-7
313762	-18
314005	-17
314267	-24
314523	-23
314754	48
315196	4
315423	48
315667	62
315894	111
316114	106
316359	96
316608	77
316851	86
317069	93
317308	96
317552	89
317801	114
318024	125
318260	35
318500	-21
318725	31
318946	35
319174	-16
319386	-3
319596	59
319815	38
320060	67
320320	85
320581	99
320820	130
321070	121
321321	108
321565	100
321797	133
322027	106
322287	64
322556	38
322819	86
323058	34
323295	12
323526	52
323761	63
323980	48
324225	-14
324487	-49
324744	8
324985	-100
325203	-58
325424	75
325631	107
325861	99
326111	75
326362	81
326608	122
326832	132
327088	73
327351	48
327614	66
327849	100
328083	30
328322	-18
328572	-36
328825	1
329070	92
329308	59
329567	34
329830	37
330093	79
330335	155
330579	92
330832	59
331095	86
331357	104
331596	122
331838	74
332098	17
332372	-9
332625	79
332868	31
333144	-14
333417	20
333659	79
333904	44
334156	19
334398	79
334627	48
334875	8
335117	38
335351	108
335570	146
335821	93
336093	62
336357	50
336597	112
336829	78
337085	2
337353	-32
337597	2
337827	5
338076	11
338337	12
338596	59
338833	28
339095	-5
339307	19
339319	115
339529	-638
339742	-440
339963	-200
340159	77
340359	112
340553	96
340742	132
340926	181
341108	165
341292	168
341476	150
341661	128
341843	2
342020	95
342197	81
342377	75
342561	74
342755	97
342965	121
343164	133
343374	88
343591	57
343821	70
344066	104
344288	180
344500	128
344729	74
344970	57
345187	63
345394	70
345617	-5
345838	-5
346068	-5
346315	11
346563	-40
346802	-107
347032	-54
347239	50
347445	46
347665	88
347910	115
348134	159
348348	135
348597	81
348868	56
349140	89
349376	137
349601	100
349842	42
350109	-32
350372	-51
350610	-24
350866	-7
351137	-5
351412	-5
351660	63
351887	85
352138	90
352422	104
352678	152
352900	170
353148	151
353405	128
353674	147
353913	168
354167	118
354422	30
354666	-14
354907	-102
355164	-130
355408	-116
355644	-42
355867	-14
356116	-28
356365	1
356623	60
356857	64
357113	86
357373	68
357620	59
357861	118
358080	158
358315	106
358567	92
358822	70
359082	66
359308	56
359557	-45
359814	-116
360070	-90
360314	27
360541	66
360790	49
361045	16
361294	24
361518	101
361752	82
362003	117
362259	112
362502	176
362718	172
362946	128
363194	107
363444	88
363677	119
363897	20
364134	-104
364376	-163
364618	-63
364843	11
365101	22
365355	-45
365602	6
365820	38
366055	63
366302	73
366561	79
366791	111
367027	103
367277	89
367533	97
367780	150
368003	163
368250	95
368500	63
368753	0
368998	-34
369224	-65
369475	-67
369745	-65
370000	-18
370224	-9
370468	27
370733	53
370977	141
371204	205
371462	168
371722	135
371978	154
372198	203
372433	146
372686	101
372940	31
373192	34
373421	26
373676	-31
373940	-67
374191	-63
374420	-12
374648	-45
374893	-29
375169	23
375440	20
375677	101
375910	82
376147	68
376368	88
376580	114
376789	108
377006	115
377255	86
377490	157
377734	73
377986	-16
378226	-69
378444	-17
378651	1
378872	20
379123	-27
379382	-38
379629	64
379866	46
380114	31
380370	62
380618	39
380833	49
381054	71
381281	141
381512	169
381729	179
381943	179
382151	85
382378	6
382630	-24
382886	-23
383135	45
383354	44
383580	-47
383824	-69
384088	-51
384346	60
384565	184
384793	118
385048	114
385307	99
385568	137
385804	137
386057	66
386319	39
386574	9
386810	46
387038	63
387317	-5
387598	-13
387862	67
388091	96
388315	73
388537	33
388759	26
388994	-3
389237	52
389477	95
389711	99
389929	115
390167	132
390409	66
390641	121
390848	137
391071	124
391318	48
391565	-14
391796	-68
392026	-158
392266	-160
392534	-86
392783	-18
393007	-102
393210	-195
393409	-166
393607	-100
393815	57
394111	168
394389	256
394629	265
394878	225
395134	157
395386	111
395637	110
395853	135
396086	66
396332	-5
396607	-2
396842	33
397102	16
397373	-34
397636	45
397871	99
398114	63
398369	52
398617	121
398846	174
399088	90
399358	30
399612	35
399847	115
400066	166
400298	85
400546	-12
400808	-40
401042	-16
401277	-75
401540	-50
401798	-57
402032	24
402252	-7
402488	-16
402741	-47
402973	45
403187	46
403406	68
403635	124
403853	106
404097	90
404347	63
404588	85
404805	163
405036	70
405269	45
405509	31
405714	24
405937	-69
406178	-63
406418	-38
406639	45
406854	19
407088	-14
407342	5
407603	68
407835	122
408073	150
408329	117
408590	96
408834	97
409055	144
409294	136
409568	141
409829	73
410087	64
410316	35
410571	-76
410827	-148
411091	-61
411325	37
411570	-17
411825	-60
412089	-10
412329	75
412554	79
412803	104
413068	106
413310	172
413547	158
413806	139
414061	191
414294	166
414553	60
414812	37
415042	53
415278	-75
415547	-155
415826	-93
416074	17
416309	-39
416576	-32
416846	-18
417092	66
417313	70
417553	75
417812	19
418084	118
418325	161
418571	126
418825	103
419077	48
419326	55
419553	52
419808	50
420066	-17
420316	-85
420551	-42
420783	-53
421033	-39
421289	27
421528	57
421753	100
421990	24
422241	33
422507	77
422760	143
422986	154
423225	99
423466	79
423716	99
423946	161
424187	128
424455	64
424709	-79
424956	-136
425183	-120
425420	-134
425675	-91
425937	-87
426185	-3
426411	6
426670	-42
426915	4
427120	73
427324	97
427515	111
427720	126
427958	136
428220	99
428456	85
428711	77
428967	99
429217	19
429462	-16
429687	-63
429922	-34
430170	9
430427	-34
430682	17
430927	84
431145	106
431390	78
431652	52
431911	104
432150	144
432372	126
432630	104
432889	121
433144	169
433364	146
433599	16
433842	-93
434108	-85
434338	-25
434596	-42
434858	-85
435098	-23
435308	46
435534	49
435761	68
435995	59
436233	140
436457	168
436703	93
436965	77
437209	137
437432	106
437669	53
437913	44
438135	107
438353	20
438606	-94
438872	-125
439137	-109
439398	-43
439634	2
439877	-64
440129	-53
440379	11
440620	110
440838	172
441070	93
441312	62
441552	63
441783	104
441995	130
442231	122
442489	71
442744	9
442971	-9
443205	-71
443449	-90
443685	-85
443907	1
444125	15
444363	6
444611	27
444854	62
445072	99
445310	86
445563	84
445808	64
446036	71
446263	100
446510	146
446760	169
447013	170
447245	155
447483	11
447737	-74
447984	-105
448212	30
448432	31
448694	-75
448959	-100
449194	34
449417	101
449672	48
449932	-17
450168	95
450382	141
450621	137
450884	133
451149	119
451383	155
451625	70
451890	-39
452147	-107
452404	-83
452630	44
452864	-27
453136	-69
453397	-51
453629	48
453845	24
454106	74
454387	141
454651	144
454883	190
455127	92
455382	89
455643	125
455878	141
456097	56
456347	-50
456601	-80
456826	-83
457085	-75
457338	-60
457577	12
457790	75
458016	31
458255	52
458506	70
458745	133
458955	157
459178	75
459418	42
459668	38
459910	152
460128	166
460373	92
460631	11
460887	-23
461126	2
461341	-27
461582	-93
461844	-126
462104	-90
462336	70
462582	85
462804	38
463020	-38
463234	19
463434	100
463646	137
463890	122
464134	118
464383	129
464617	139
464865	78
465120	44
465370	-2
465613	-36
465846	-79
466068	-86
466284	-72
466524	-47
466779	-10
467049	53
467284	95
467528	34
467784	-7
468029	60
468247	155
468485	144
468743	168
469008	169
469234	152
469473	45
469724	20
469973	31
470202	50
470433	-60
470680	-104
470924	-86
471170	-20
471389	5
471622	-36
471872	-35
472130	24
472376	108
472593	117
472825	64
473065	62
473309	46
473523	155
473723	209
473930	172
474155	119
474394	63
474612	55
474824	-35
475064	-104
475307	-119
475543	-9
475760	28
475991	-5
476234	-10
476473	53
476692	63
476947	60
477210	66
477462	115
477689	168
477914	122
478172	68
478435	33
478689	13
478933	0
479153	-24
479393	-136
479621	-253
479823	-255
480021	-180
480219	-97
480414	-42
480605	121
480797	112
481026	119
481248	158
481478	152
481698	220
481917	232
482139	203
482349	343
482549	279
482743	11296
482797	9995
482935	4788
483124	2505
483312	1616
483493	1049
483668	611
483843	264
484017	-10
484194	-170
484374	-258
484556	-342
484752	-374
484962	-382
485175	-346
485379	-320
485605	-295
485850	-327
486088	-338
486309	-300
486516	-258
486738	-233
486944	-324
487141	-269
487334	-115
487522	-90
487715	-138
487926	-148
488215	-181
488484	-155
488728	-57
488944	0
489153	24
489357	112
489556	95
489759	181
489974	126
490179	130
490389	90
490603	66
490803	77
491014	37
491259	6
491513	20
491748	19
491991	-39
492238	-131
492475	-189
492690	-136
492898	-104
493128	-96
493400	-58
493659	17
493893	34
494140	-5
494409	15
494674	26
494903	100
495138	144
495404	125
495648	110
495876	117
496107	99
496375	41
496634	-38
496862	-14
497076	-2
497295	-12
497515	-20
497732	-38
497934	2
498125	41
498327	45
498626	20
498900	-32
499159	-31
499388	28
499619	15
499834	35
500038	24
500261	-6
500514	-63
500773	-46
501010	24
501244	-47
501493	-138
501749	-170
501997	-79
502218	31
502442	64
502682	37
502926	48
503175	66
503405	125
503648	128
503886	139
504118	174
504341	135
504596	62
504850	34
505106	11
505351	-40
505573	-42
505803	-85
506042	-107
506296	-47
506550	11
506786	56
507043	46
507291	52
507535	5
507770	22
507983	45
508215	141
508473	128
508724	74
508951	90
509181	68
509425	-9
509675	-38
509898	-115
510120	-175
510366	-185
510635	-138
510850	-74
511055	-38
511267	-32
511504	-5
511747	62
511961	56
512215	64
512480	45
512728	85
512948	112
513172	86
513410	63
513661	38
513912	42
514140	71
514381	-31
514653	-87
514917	-94
515167	-28
515389	1
515632	4
515894	35
516158	35
516386	28
516618	37
516862	42
517108	60
517353	154
517574	159
517817	104
518070	33
518325	1
518538	22
518749	-23
518978	-64
519229	-147
519480	-127
519708	-49
519938	-65
520180	-79
520430	-14
520682	79
520911	147
521142	106
521387	81
521643	77
521879	124
522096	170
522325	122
522560	59
522789	48
523007	24
523268	1
523533	-51
523775	-94
523984	-113
524212	-85
524444	-57
524694	-28
524919	63
525143	46
525387	37
525637	19
525875	63
526081	82
526289	97
526507	158
526739	210
526973	177
527210	157
527420	60
527610	-109
527803	-71
527989	-137
528174	-133
528377	-111
528612	-20
528857	28
529108	-6
529361	-43
529609	-20
529851	38
530081	67
530298	27
530507	63
530723	90
530955	79
531185	92
531403	111
531614	71
531846	66
532116	49
532339	-21
532575	-60
532814	-97
533038	-69
533252	-56
533504	-3
533772	37
534020	59
534245	75
534488	62
534725	52
534958	137
535172	179
535409	118
535656	89
535890	121
536100	146
536301	56
536497	-42
536701	-42
536906	-108
537121	-76
537339	-18
537550	48
537751	39
537954	-64
538161	-140
538371	-113
538578	-12
538774	68
538971	92
539172	110
539391	122
539624	101
539856	112
540066	143
540273	117
540499	97
540758	74
541001	81
541218	79
541460	33
541701	-3
541940	-36
542156	-57
542392	-27
542632	15
542880	39
543105	119
543320	86
543564	67
543837	6
544098	50
544326	86
544571	64
544823	79
545088	62
545325	9
545573	-45
545831	-82
546093	-39
546348	9
546593	26
546842	-23
547097	-23
547348	13
547593	30
547814	30
548044	12
548299	4
548554	99
548761	176
548958	203
549151	52
549338	89
549521	13
549706	-78
549894	-100
550106	-3
550307	34
550501	-6
550691	-2
550875	38
551057	38
551235	27
551411	16
551589	20
551771	27
551963	73
552169	110
552374	125
552606	143
552844	119
553088	100
553322	122
553540	141
553774	128
554016	117
554252	84
554479	78
554691	33
554914	-17
555153	-40
555368	-3
555604	8
555855	5
556105	64
556332	77
556577	68
556813	103
557019	132
557228	95
557439	70
557651	110
557854	129
558059	143
558253	140
558469	70
558737	-3
558963	6
559193	-86
559424	-100
559656	-74
559871	-17
560081	-2
560305	20
560546	23
560797	96
561027	106
561271	64
561527	2
561772	-2
561994	70
562209	85
562437	100
562689	96
562930	125
563152	111
563397	30
563643	-36
563894	-56
564117	-36
564356	-47
564600	-31
564838	6
565061	84
565298	78
565541	78
565779	79
566002	93
566231	104
566471	96
566714	53
566945	63
567163	52
567405	45
567651	-16
567899	2
568119	-32
568352	-61
568596	-72
568815	1
569021	12
569245	-25
569495	-31
569746	35
569990	90
570211	82
570446	74
570683	103
570924	78
571171	112
571391	158
571629	150
571881	124
572146	52
572399	38
572618	-2
572847	-96
573092	-131
573341	-68
573561	5
573793	-23
574059	-21
574324	30
574551	126
574779	161
575014	135
575260	71
575496	101
575721	101
575972	141
576234	66
576484	75
576704	53
576939	46
577190	23
577435	27
577660	-65
577909	-129
578178	-123
578435	-53
578662	50
578898	31
579140	45
579382	62
579611	110
579851	64
580101	63
580340	82
580560	165
580789	170
581020	161
581254	143
581474	99
581722	6
581980	-31
582238	-47
582472	-54
582712	-64
582954	-40
583200	-32
583436	-40
583665	-25
583913	-12
584168	41
584412	122
584631	129
584863	81
585097	73
585329	110
585544	122
585783	92
586038	35
586295	0
586527	-3
586758	-12
587004	-45
587256	-108
587487	-67
587702	-38
587939	-23
588211	-29
588475	34
588704	88
588944	71
589206	115
589464	118
589701	124
589920	117
590147	88
590384	50
590623	68
590839	70
591062	15
591314	-40
591562	-107
591797	-122
592004	-108
592224	-29
592451	30
592688	27
592906	56
593112	73
593330	48
593564	53
593810	88
594030	111
594239	59
594461	59
594689	45
594909	64
595120	88
595362	50
595619	-40
595880	-118
596122	-125
596363	-74
596615	-50
596869	-28
597105	30
597320	37
597564	82
597828	70
598086	85
598320	141
598535	119
598764	151
599003	108
599229	100
599441	97
599680	62
599933	-45
600162	-90
600362	-78
600559	-17
600753	15
600942	20
601126	82
601311	63
601495	24
601685	-53
601869	-25
602050	49
602227	86
602406	107
602586	89
602772	60
602951	112
603126	151
603303	124
603485	90
603671	112
603857	62
604059	15
604276	-85
604495	-86
604694	-64
604889	-71
605093	-50
605297	-144
605487	-133
605677	-56
605864	-80
606054	-46
606242	52
606431	-39
606620	57
606802	112
606982	74
607159	63
607331	93
607502	141
607674	147
607850	129
608030	163
608209	97
608394	79
608577	5
608759	-17
608939	4
609117	-64
609301	-133
609493	-115
609709	-72
609909	-34
610120	8
610332	-7
610543	34
610751	53
610951	49
611168	100
611386	92
611614	111
611826	136
612064	125
612310	119
612544	122
612753	92
612972	42
613200	4
613437	23
613666	-25
613921	-72
614174	-107
614397	-23
614611	12
614836	8
615079	59
615314	114
615538	85
615779	70
616036	55
616285	114
616500	143
616718	92
616941	44
617175	39
617410	57
617630	39
617880	-39
618146	-134
618393	-130
618616	-80
618837	-57
619066	-25
619301	34
619527	82
619738	90
619969	90
620211	112
620440	140
620652	135
620888	73
621141	39
621391	42
621622	-5
621844	-45
622078	-56
622314	-80
622551	-83
622767	-78
622986	-94
623217	-69
623462	2
623691	161
623914	161
624132	129
624351	70
624564	110
624776	107
624994	74
625212	121
625437	151
625657	146
625865	104
626088	66
626331	17
626576	-24
626807	-20
627017	-51
627245	-94
627476	-91
627717	-14
627951	107
628163	114
628402	100
628657	74
628906	154
629121	188
629348	184
629570	115
629809	82
630045	82
630269	95
630526	77
630777	17
631023	-80
631245	-111
631461	-136
631688	-69
631917	6
632152	86
632367	115
632614	121
632865	64
633107	114
633323	124
633552	100
633789	56
634019	82
634238	141
634456	129
634704	75
634948	24
635186	-10
635406	-79
635651	-130
635909	-137
636165	-76
636409	20
636630	53
636867	55
637112	57
637356	108
637581	157
637826	118
638074	126
638315	137
638526	154
638744	88
638965	37
639185	39
639390	78
639602	68
639799	28
640001	1
640254	-86
640480	-89
640703	-67
640949	-24
641195	12
641428	31
641633	50
641835	22
642026	-5
642210	68
642391	115
642574	157
642767	128
642992	107
643225	79
643447	119
643653	130
643866	89
644076	13
644282	-24
644477	-13
644674	-38
644878	-60
645087	-18
645280	11
645481	15
645702	33
645945	64
646185	70
646430	66
646671	42
646916	31
647154	49
647391	46
647622	101
647863	48
648099	23
648333	17
648550	60
648774	2
649028	-38
649277	-58
649506	-57
649750	-17
650003	42
650245	66
650462	52
650688	20
650905	46
651107	73
651307	107
651557	122
651820	141
652048	125
652286	100
652516	74
652741	48
652946	41
653137	22
653329	15
653526	12
653736	-50
653993	-65
654248	-58
654464	-32
654692	-12
654920	9
655139	59
655345	100
655565	70
655793	77
656026	108
656238	162
656482	177
656729	140
656968	128
657188	99
657412	44
657651	26
657899	-40
658140	-6
658357	20
658588	11
658807	16
659009	28
659207	19
659435	15
659675	33
659902	70
660145	37
660390	22
660626	26
660838	37
661060	1
661291	4
661527	31
661747	77
661966	11
662183	-40
662407	-51
662621	28
662818	57
663010	52
663198	59
663384	73
663573	85
663762	100
663953	89
664159	99
664369	71
664578	24
664789	56
664989	106
665183	111
665384	82
665594	37
665815	30
666032	42
666229	62
666428	64
666623	59
666816	34
667013	16
667214	19
667414	-21
667649	-39
667884	-29
668101	-24
668314	-24
668540	8
668766	35
668994	68
669205	75
669426	84
669670	97
669920	118
670175	135
670403	104
670635	45
670877	19
671128	-16
671363	-16
671589	-75
671849	-136
672115	-125
672366	-75
672586	13
672820	9
673068	17
673321	45
673548	74
673797	103
674055	126
674304	125
674528	135
674777	88
716281	-10547
716303	-18417
720086	1030
720328	880
720589	756
720845	738
721069	781
721285	713
721481	665
721674	626
721870	592
722080	537
722315	501
722532	505
722737	512
722932	520
723145	500
723423	380
723680	308
723923	261
724155	192
724391	111
724630	53
724851	12
725055	20
725262	30
725481	177
725702	133
725941	237
726176	242
726394	231
726594	179
726795	128
726996	121
727198	124
727403	146
727598	205
727795	188
727997	169
728228	163
728464	122
728672	71
728902	33
729145	-46
729398	-80
729640	24
729864	95
730081	73
730319	56
730577	97
730829	132
731061	197
731288	237
731504	201
731732	169
731976	170
732217	155
732455	126
732676	114
732890	81
733120	-23
733368	-115
733633	-137
733882	-35
734095	6
734333	74
734588	84
734852	24
735084	110
735314	150
735584	183
735830	179
736051	203
736276	180
736508	206
736745	180
736967	163
737176	111
737392	57
737603	52
737815	6
738049	-122
738307	-140
738557	-108
738782	-46
738998	45
739224	62
739481	46
739734	41
739975	53
740193	101
740438	135
740706	133
740972	111
741193	132
741413	128
741635	132
741878	42
742101	38
742335	75
742588	-14
742844	-16
743068	97
743301	99
743547	125
743775	88
743977	118
744176	111
744373	77
744573	73
744779	74
744990	97
745209	114
745412	103
745618	122
745820	107
746022	119
746229	157
746434	173
746631	111
746844	-5
747068	-112
747287	-127
747493	-127
747714	-86
747942	-39
748155	-23
748358	-27
748575	-9
748823	46
749077	111
749313	135
749554	143
749800	92
750046	132
750272	124
750514	111
750758	81
750969	26
751200	6
751447	5
751667	2
751897	-91
752102	-71
752300	-74
752489	15
752675	20
752864	50
753107	125
753346	190
753578	183
753827	137
754080	117
754329	118
754561	107
754777	117
754999	86
755234	62
755492	97
755720	4
755968	-113
756233	-126
756498	-83
756744	15
756962	-2
757207	-24
757459	5
757693	95
757922	90
758196	89
758458	67
758686	163
758893	184
759109	162
759338	132
759575	93
759821	78
760042	56
760279	-61
760538	-126
760789	-126
761023	-64
761238	11
761473	44
761716	38
761964	44
762191	93
762418	93
762688	107
762955	95
763199	111
763416	108
763655	93
763931	85
764197	86
764419	71
764621	39
764823	-67
765021	-109
765238	-85
765457	0
765699	63
765959	97
766184	55
766393	84
766588	63
766779	85
766968	154
767158	180
767350	159
767548	168
767756	191
767974	151
768194	143
768415	124
768630	144
768840	122
769052	71
769267	44
769467	-39
769672	-61
769873	-32
770062	35
770254	44
770463	63
770695	89
770899	64
771116	45
771328	-27
771551	53
771753	93
771960	84
772171	85
772387	126
772589	139
772791	146
772986	103
773178	114
773363	53
773557	9
773778	-38
774014	-51
774250	-39
774470	2
774679	-14
774903	-3
775157	-16
775401	64
775615	135
775831	143
776071	151
776329	121
776587	119
776807	140
777043	133
777294	97
777546	52
777766	111
777997	84
778245	46
778526	-17
778790	-47
779014	-71
779248	-68
779492	-49
779750	-42
779971	44
780181	89
780410	114
780642	110
780879	161
781102	176
781318	147
781574	89
781851	99
782107	119
782346	141
782568	89
782821	34
783088	13
783333	-61
783569	-75
783794	-163
784085	-127
784349	-97
784577	-39
784786	39
784986	74
785193	73
785434	92
785664	112
785887	130
786093	136
786324	121
786568	85
786834	129
787064	146
787269	122
787482	93
787702	82
787914	37
788134	82
788351	97
788587	52
788852	-23
789119	-24
789380	-14
789613	23
789831	16
790070	19
790340	46
790581	49
790785	46
790983	73
791174	53
791368	52
791568	97
791778	125
792055	115
792328	85
792576	78
792799	44
793032	-10
793264	-12
793495	16
793707	-28
793940	-94
794176	-74
794423	17
794643	59
794882	34
795151	22
795420	27
795679	114
795908	152
796150	133
796404	124
796656	104
796881	95
797100	79
797331	55
797589	-7
797845	-18
798069	-76
798310	-140
798563	-113
798821	-39
799045	39
799269	-6
799531	2
799806	35
800053	84
800271	62
800508	59
800772	70
801030	130
801258	186
801480	168
801746	118
802017	4
802274	5
802495	-65
802710	-148
802955	-153
803219	-98
803476	-3
803704	57
803963	4
804231	26
804489	97
804712	141
804952	154
805202	122
805477	136
805739	206
805973	194
806233	132
806502	79
806763	23
806992	0
807203	-79
807441	-142
807739	-113
808018	30
808249	136
808488	117
808754	81
809017	71
809254	130
809474	161
809726	174
810234	219
810458	209
811212	86
811436	67
812436	-21
812658	27
813717	111
813941	103
814935	174
815922	35
816149	-35
817177	-6
817401	-3
818093	93
818293	106
818492	111
818695	101
819153	140
819377	152
820352	66
820566	-5
821503	-49
822795	165
822999	130
823877	162
824090	117
824819	106
825030	104
825709	-6
825916	-14
826128	-96
826864	-32
827086	-3
828029	108
828241	97
828975	155
829196	176
830158	67
830360	50
830569	-23
831078	-149
831303	-61
832321	62
832540	86
833321	74
833549	101
834328	107
834564	55
835350	-23
835582	-96
836354	-39
836569	-9
837055	45
837270	119
837527	117
838059	133
839078	183
839323	104
839579	74
840103	97
840338	45
840566	-47
841073	5
841300	106
841528	96
842035	30
842249	66
842987	166
843199	157
843434	82
844163	125
844391	100
844869	84
845072	106
845277	74
845473	-53
845649	-338
845659	-122
845841	-776
846019	-54
846192	522
846367	-734
846541	-10970
846709	-6517
846877	-10564
847042	-10124
847205	-2340
847368	3903
847530	-224
847689	201
847849	1125
851625	81
851936	261
852113	279
852295	377
852520	303
852719	1828
852966	7373
853201	1566
853434	861
853666	680
853892	688
854116	316
854334	250
854545	63
854751	97
857990	-1763
859826	-8111
900220	17
900510	11
900792	-23
901064	-57
901346	8
901621	5
901890	6
902169	42
902459	74
902746	106
903019	71
903272	56
903530	81
903806	78
904076	50
904333	16
904612	57
904900	4
905170	-93
905441	-94
905722	-83
906008	-31
906283	64
906542	73
906818	53
907107	38
907387	60
907656	125
907942	150
908227	114
908506	96
908773	59
909034	75
909321	62
909602	31
909863	-63
910079	2088
910281	268
910474	59
910487	-1085
910599	-4105
910704	-2267
910930	-1210
911141	-542
911332	-35
911518	1187
911672	7490
911864	5478
912043	3607
912218	3420
912386	2201
912535	764
912691	706
912856	163
913017	-210
913175	-91
913332	-104
913488	-247
913644	-287
913801	-266
913960	-288
914126	-268
914297	-255
914477	-284
914662	-339
914851	-331
915036	-294
915223	-339
915431	-328
915655	-295
915872	-138
916078	1
916288	-120
916562	-221
916827	-109
917085	9
917369	-104
917662	-76
917954	-69
918226	75
918504	15
918802	-18
919089	39
919359	137
919650	-16
919947	-57
920243	-20
920515	-28
920807	-90
921103	-102
921384	23
921657	64
921947	-53
922245	-27
922538	38
922816	115
923099	24
923386	86
923666	89
923921	130
924156	129
924443	-32
924750	-166
925029	-151
925294	-156
925574	-151
925856	-38
926115	55
926392	56
926673	15
926943	84
927201	135
927469	88
927733	118
927973	165
928199	158
928505	26
928804	-105
929086	-120
929350	-82
929629	-101
929909	-76
930174	-57
930453	-79
930718	8
930973	97
931247	104
931536	75
931812	172
932075	224
932349	228
932628	205
932902	237
933156	205
933427	34
933701	-192
933986	-235
934248	-189
934523	-149
934822	-74
935115	2
935386	68
935672	24
935960	66
936233	135
936498	148
936786	63
937081	59
937358	144
937637	143
937927	92
938209	-24
938477	-39
938759	-51
939060	-85
939350	-79
939628	-49
939926	13
940218	26
940490	118
940749	166
941026	174
941321	162
941609	208
941877	173
942164	74
942458	-10
942740	-23
943012	-14
943306	-109
943595	-180
943872	-127
944152	-74
944446	-6
944735	71
945005	46
945298	50
945590	64
945865	112
946128	126
946421	82
946711	166
946979	159
947256	63
947548	-36
947818	-147
948078	-206
948355	-178
948641	-98
948906	-17
949159	20
949433	4
949723	24
949987	93
950241	155
950510	143
950782	124
951036	159
951278	194
951551	161
951834	100
952100	-27
952357	-97
952634	-166
952919	-90
953186	-63
953460	-50
953748	-9
954038	71
954309	103
954595	128
954880	148
955151	201
955405	210
955662	212
955927	203
956192	257
956445	195
956735	-24
957039	-195
957326	-156
957596	-138
957874	-138
958154	-142
958429	-96
958687	52
958939	117
959212	161
959487	154
959751	183
960007	158
960280	118
960558	163
960821	213
961064	177
961332	-63
961605	-153
961866	-214
962149	-181
962436	-129
962722	-144
962989	-101
963263	-53
963542	27
963807	174
964053	183
964343	141
964645	93
964920	184
965176	209
965406	203
965606	181
965799	57
965986	-85
966181	-181
966480	-231
966751	-239
967046	-202
967349	-155
967640	-72
967929	16
968204	15
968490	-2
968780	99
969062	133
969335	154
969613	150
969905	19
970196	6
970473	-32
970754	-69
971023	-115
971321	-74
971619	-2
971909	42
972183	75
972466	93
972761	147
973044	241
973314	263
973603	238
973878	199
974093	318
974290	321
974485	268
974672	220
974863	159
975153	35
975437	-116
975754	-192
976054	-200
976341	-131
976624	-51
976899	-9
977180	99
977461	158
977736	155
978027	141
978320	194
978607	184
978889	154
979174	148
979454	221
979729	166
979983	73
980210	-38
980499	-105
980799	-105
981081	-72
981353	-96
981612	-93
981903	-23
982210	48
982497	97
982762	198
983008	228
983315	181
983623	161
983910	181
984192	136
984497	48
984785	-80
985076	-243
985369	-302
985647	-214
985938	-171
986235	-101
986534	-115
986819	-74
987083	77
987357	74
987672	64
987979	92
988269	192
988540	151
988832	108
989122	89
989404	86
989669	184
989879	275
990078	157
990270	85
990459	-42
990674	-54
990952	-2
991253	34
991541	63
991819	39
992090	93
992374	77
992675	101
992970	126
993260	111
993546	133
993816	85
994100	16
994383	-18
994655	341
994786	-51
994862	2223
995058	2837
995245	631
995429	351
995621	615
995815	22
996005	73
996196	6
996384	-69
996568	-145
996748	-178
996925	-330
997101	-648
997278	-951
997453	-851
997618	-780
997787	-136
997956	158
998121	713
998287	224
998448	-27
998608	56
998769	-579
998929	887
999090	11118
999252	4501
999420	2244
999596	1873
999783	2232
999982	373
1000187	-454
1000398	-615
1000620	-813
1000848	-582
1001083	-576
1001318	-735
1001549	-666
1001773	-582
1002000	-575
1002226	-499
1002445	252
1002659	-476
1002868	-408
1003102	10528
1003334	4643
1003556	-998
1003779	-1489
1004037	-1139
1004303	-1206
1004550	620
1004763	-772
1004967	-3353
1005162	-1493
1005350	-1943
1005536	-1085
1005715	-2300
1005889	-1614
1006059	-705
1006228	-1135
1006396	-858
1006562	-662
1006727	-694
1006896	-703
1007069	-47
1007251	-206
1007438	-175
1007634	-145
1007846	-90
1008062	-90
1008305	-217
1008577	-323
1008845	-461
1009114	-395
1009346	-458
1009578	-349
1009827	-260
1010043	-140
1010245	-60
1010466	19
1010773	35
1011055	73
1011331	70
1011583	172
1011810	213
1012083	199
1012374	179
1012627	203
1012877	82
1013163	68
1013422	33
1013653	6
1013941	-51
1014230	-32
1014512	-50
1014777	0
1015005	-16
1015252	-116
1015549	-6
1015819	-40
1016024	124
1016222	154
1016420	30
1016620	46
1016831	106
1017063	206
1017290	191
1017559	62
1017844	-25
1018124	-115
1018385	-69
1018645	-131
1018922	-177
1019191	-213
1019448	-204
1019688	-86
1019949	-163
1020237	-100
1020521	-17
1020796	93
1021064	70
1021348	-24
1021626	68
1021886	203
1022116	307
1022369	137
1022645	-16
1022929	-94
1023193	48
1023464	50
1023754	-7
1024041	8
1024312	1
1024597	-65
1024879	-53
1025151	-49
1025398	11
1025671	-63
1025958	-5
1026243	27
1026525	-24
1026786	20
1027066	-75
1027347	-21
1027626	-68
1027889	-7
1028136	30
1028410	-9
1028686	15
1028953	-27
1029197	26
1029437	-57
1029722	-23
1030013	46
1030291	17
1030550	79
1030796	67
1031076	90
1031356	46
1031615	99
1031857	52
1032132	-82
1032422	-50
1032696	17
1032946	46
1033206	-101
1033477	-116
1033741	-83
1033992	-7
1034233	37
1034510	17
1034799	6
1035068	8
1035315	118
1035546	143
1035831	148
1036127	133
1036398	129
1036614	155
1036818	135
1037017	4
1037221	-96
1037430	-20
1037648	66
1037894	-32
1038219	-126
1038525	-134
1038824	-63
1039113	15
1039409	62
1039699	-12
1039986	-40
1040263	12
1040540	82
1040817	71
1041071	128
1041321	55
1041617	-29
1041913	-72
1042197	-28
1042465	46
1042737	-116
1043040	-119
1043332	-32
1043610	81
1043879	146
1044153	66
1044441	73
1044721	79
1044983	168
1045230	165
1045508	82
1045789	42
1046060	79
1046301	117
1046519	60
1046809	-102
1047104	-131
1047388	2
1047645	48
1047901	-7
1048193	-38
1048472	-45
1048745	-6
1049010	124
1049278	48
1049562	52
1049850	66
1050119	166
1050371	152
1050639	85
1050921	39
1051187	112
1051437	59
1051720	-47
1051997	-169
1052266	-173
1052520	-57
1052784	-91
1053067	-119
1053344	-97
1053606	-38
1053861	-5
1054142	27
1054420	49
1054690	84
1054934	174
1055177	203
1055448	177
1055715	155
1055963	252
1056211	152
1056488	28
1056769	-12
1057030	-34
1057281	-112
1057562	-105
1057838	-75
1058104	20
1058349	85
1058615	62
1058913	-13
1059192	93
1059453	111
1059720	57
1059990	59
1060229	155
1060461	173
1060761	50
1061063	5
1061348	50
1061607	163
1061876	46
1062167	-34
1062449	15
1062710	39
1062982	-10
1063259	33
1063527	85
1063771	101
1063996	55
1064292	-23
1064595	-3
1064853	93
1065087	172
1065351	110
1065645	84
1065908	133
1066135	205
1066377	108
1066654	30
1066894	108
1067104	166
1067307	136
1067503	57
1067707	-39
1067942	-42
1068205	30
1068501	-39
1068797	-87
1069085	-86
1069357	1
1069636	-45
1069922	-61
1070202	-20
1070481	-6
1070752	60
1071004	162
1071262	88
1071553	60
1071838	27
1072119	35
1072389	35
1072645	-10
1072924	-91
1073216	-133
1073499	-32
1073764	64
1074028	-65
1074303	-72
1074577	8
1074837	163
1075110	104
1075405	46
1075687	15
1075960	129
1076218	170
1076506	75
1076789	30
1077068	31
1077325	122
1077568	60
1077855	-12
1078147	-111
1078423	-113
1078679	-80
1078946	-108
1079221	-98
1079483	-54
1079723	-28
1079940	62
1080166	30
1080426	-12
1080716	20
1080977	82
1081226	103
1081494	114
1081764	112
1082021	144
1082250	192
1082488	128
1082791	75
1083079	5
1083349	-40
1083591	-63
1083839	-246
1084136	-268
1084418	-27
1084681	99
1084955	50
1085234	-74
1085505	33
1085751	114
1086008	136
1086263	192
1086522	190
1086759	213
1087026	199
1087314	210
1087595	190
1087868	190
1088126	208
1088390	95
1088672	6
1088952	11
1089207	-21
1089453	-71
1089759	-80
1090053	-56
1090334	53
1090593	158
1090852	59
1091154	-38
1091441	86
1091706	210
1091979	110
1092262	86
1092539	165
1092791	263
1093057	174
1093333	121
1093603	183
1093864	147
1094151	-31
1094439	-137
1094724	-105
1094990	17
1095249	-50
1095525	-105
1095805	-97
1096076	-29
1096330	44
1096591	-7
1096841	5
1097106	19
1097358	64
1097606	93
1097911	31
1098224	-3
1098514	16
1098799	85
1099073	88
1099357	-28
1099636	-158
1099892	-163
1100115	-87
1100326	39
1100581	-64
1100895	-98
1101188	-89
1101461	118
1101722	141
1101982	155
1102188	165
1102383	263
1102563	234
1102754	345
1102947	161
1103138	19
1103326	-51
1103514	-42
1103697	8
1103878	-25
1104053	23
1104226	-32
1104399	-93
1104571	-82
1104738	-142
1104901	-167
1105062	-102
1105223	-71
1105383	-96
1105544	-64
1105707	-61
1105874	-7
1106052	13
1106244	-32
1106448	-49
1106658	1
1106870	67
1107090	31
1107327	48
1107553	101
1107765	159
1107975	117
1108203	85
1108442	90
1108689	128
1108922	161
1109172	71
1109433	-24
1109697	-61
1109957	-89
1110209	19
1110451	97
1110710	-27
1110988	-80
1111268	-13
1111534	74
1111794	50
1112082	50
1112365	-29
1112639	39
1112893	141
1113160	132
1113446	95
1113725	124
1114002	122
1114265	82
1114532	-56
1114816	-74
1115086	-72
1115339	-25
1115554	0
1115775	-65
1116012	-86
1116264	-74
1116525	8
1116770	48
1117053	2
1117343	23
1117613	146
1117858	206
1118105	122
1118374	89
1118648	81
1118891	129
1119112	150
1119377	63
1119669	-67
1119944	-125
1120203	-58
1120471	-76
1120748	-36
1121021	1
1121267	67
1121492	73
1121766	44
1122046	20
1122318	49
1122567	112
1122801	140
1123075	90
1123350	73
1123625	73
1123873	90
1124100	89
1124365	-39
1124653	-100
1124907	-86
1125135	-57
1125405	-97
1125681	-58
1125958	22
1126213	6
1126500	-47
1126788	-28
1127061	48
1127311	84
1127585	122
1127868	126
1128146	132
1128410	139
1128661	140
1128931	77
1129190	27
1129466	-53
1129734	-79
1130002	-113
1130284	-137
1130567	-71
1130847	-45
1131116	4
1131386	20
1131665	50
1131937	56
1132200	13
1132450	66
1132680	124
1132930	78
1133220	20
1133486	79
1133711	173
1133922	141
1134161	52
1134491	-45
1134790	-76
1135063	-34
1135352	-80
1135641	-98
1135933	-20
1136197	44
1136453	92
1136753	8
1137049	5
1137335	79
1137607	159
1137893	133
1138180	106
1138458	45
1138717	93
1138964	106
1139251	-5
1139551	-107
1139839	-175
1140110	-148
1140394	-116
1140682	2
1140967	13
1141246	37
1141509	31
1141778	0
1142045	45
1142306	117
1142568	148
1142806	177
1143066	135
1143360	74
1143650	74
1143914	143
1144169	56
1144453	-42
1144732	-86
1144999	20
1145247	77
1145516	-14
1145791	9
1146065	-7
1146320	57
1146573	-12
1146846	-6
1147123	15
1147397	28
1147662	106
1147918	84
1148182	71
1148449	55
1148707	66
1148954	151
1149211	96
1149476	-5
1149743	-39
1149999	37
1150241	-13
1150504	-80
1150777	-82
1151044	26
1151297	130
1151554	56
1151829	9
1152101	5
1152362	92
1152606	181
1152868	53
1153147	20
1153418	111
1153666	68
1153945	15
1154234	-29
1154501	-45
1154765	-112
1155049	-87
1155336	-35
1155585	46
1155805	-2
1156113	-3
1156417	62
1156694	152
1156969	129
1157260	117
1157542	95
1157810	176
1158071	130
1158347	104
1158631	140
1158906	100
1159172	20
1159427	-64
1159691	-89
1159961	-24
1160222	64
1160461	150
1160704	119
1160973	106
1161235	95
1161479	143
1161708	163
1161970	114
1162233	133
1162494	135
1162741	183
1162961	169
1163208	66
1163523	9
1163800	15
1164078	-78
1164368	-78
1164656	-46
1164933	34
1165202	-51
1165488	-43
1165768	9
1166039	26
1166286	99
1166551	64
1166839	67
1167121	45
1167389	119
1167646	78
1167923	86
1168204	96
1168472	101
1168724	39
1168988	-116
1169267	-97
1169540	-72
1169788	-43
1170041	-133
1170296	-17
1170564	66
1170799	112
1171022	104
1171282	16
1171530	60
1171748	150
1171988	147
1172257	71
1172513	64
1172763	89
1172987	184
1173212	129
1173491	38
1173769	-38
1174026	-7
1174253	82
1174498	117
1174778	85
1175046	44
1175304	30
1175551	4
1175829	-43
1176116	20
1176386	82
1176635	128
1176867	39
1177138	22
1177365	56
1177576	139
1177790	144
1178097	-21
1178407	-10
1178697	101
1178964	78
1179248	-27
1179532	-36
1179797	66
1180062	27
1180346	-6
1180624	-57
1180894	22
1181149	67
1181415	27
1181690	17
1181962	13
1182209	168
1182448	172
1182725	81
1183004	26
1183268	20
1183501	70
1183744	-25
1183990	-40
1184252	-64
1184491	15
1184720	37
1184986	-35
1185271	-10
1185550	19
1185799	79
1186050	39
1186314	68
1186579	85
1186837	103
1187066	148
1187312	73
1187598	71
1187874	23
1188134	-32
1188368	-93
1188623	-142
1188887	-51
1189148	1
1189379	96
1189612	46
1189891	-35
1190167	101
1190421	115
1190650	86
1190915	-24
1191190	67
1191451	168
1191674	206
1191895	117
1192172	119
1192462	77
1192735	82
1192986	64
1193265	-39
1193540	16
1193789	112
1194026	75
1194298	-9
1194574	-82
1194838	-71
1195097	33
1195334	125
1195610	8
1195906	4
1196177	59
1196410	146
1196653	101
1196906	15
1197168	30
1197396	55
1197657	-46
1197951	-36
1198225	-12
1198490	71
1198732	35
1199013	-49
1199286	-50
1199548	-14
1199783	77
1200025	37
1200309	1
1200584	-34
1200852	-34
1201105	107
1201363	53
1201637	79
1201913	-24
1202183	-140
1202405	-71
1202618	-71
1202882	-78
1203148	-31
1203402	-27
1203642	9
1203864	103
1204128	78
1204419	53
1204703	112
1204966	130
1205242	35
1205525	41
1205794	89
1206048	161
1206288	122
1206571	-14
1206859	-60
1207133	-32
1207384	82
1207617	68
1207882	60
1208154	35
1208398	112
1208657	0
1208931	-75
1209205	-45
1209455	50
1209721	63
1210008	66
1210291	53
1210556	75
1210793	191
1211036	90
1211301	12
1211572	-34
1211816	2
1212050	11
1212322	-9
1212608	-3
1212880	35
1213114	60
1213361	11
1213633	19
1213887	93
1214121	71
1214401	13
1214690	8
1215207	112
1215477	38
1215754	5
1216015	4
1216245	12
1216490	-49
1216772	-75
1217046	-56
1217292	1
1217538	-18
1217831	-5
1218115	2
1218378	45
1218632	45
1218910	44
1219193	93
1219463	100
1219709	117
1219948	104
1220193	16
1220481	15
1220756	-85
1221017	-152
1221320	-111
1221615	-16
1221894	45
1222153	15
1222413	-60
1222682	24
1222976	118
1223236	144
1223490	174
1223773	82
1224053	23
1224317	165
1224559	179
1224795	46
1225043	99
1225312	108
1225572	157
1225806	137
1226078	22
1226362	44
1226639	70
1226886	130
1227133	41
1227399	-63
1227661	-24
1227899	85
1228123	62
1228384	-9
1228652	0
1228912	50
1229143	86
1229374	48
1229640	-49
1229908	-109
1230141	-14
1230352	49
1230578	-34
1230814	-13
1231065	41
1231293	68
1231525	24
1231788	-58
1232056	-6
1232322	74
1232552	121
1232788	41
1233043	-14
1233300	-2
1233540	125
1233760	176
1234005	92
1234280	17
1234554	35
1234800	112
1235033	119
1235311	57
1235588	-13
1235849	-42
1236084	31
1236312	38
1236600	-46
1236882	-58
1237117	-57
1237314	-403
1237500	-129
1237684	-57
1237907	12
1238128	112
1238320	675
1238473	-42
1238643	31
1238828	-647
1239005	8
1239178	-78
1239350	53
1239520	147
1239686	155
1239851	101
1240012	100
1240170	115
1240327	89
1240482	53
1240637	172
1240791	166
1240944	152
1241097	158
1241250	201
1241405	161
1241563	137
1241907	117
1243787	121
1243993	117
1244203	30
1244730	90
1244972	176
1245209	63
1245465	37
1245723	37
1245969	176
1246214	115
1246506	77
1247347	55
1247621	48
1249027	68
1249571	-35
1250407	92
1250644	71
1251208	-50
1251495	22
1251759	86
1251999	73
1252295	-20
1252870	27
1253140	154
1253717	13
1254277	67
1254551	23
1254838	28
1255363	-38
1255580	60
1255794	140
1256103	-47
1256396	-97
1256653	79
1256859	119
1257053	122
1257249	3811
1257296	3870
1257438	2396
1257624	1171
1257803	2
1257983	-207
1258158	1608
1258332	2262
1258503	5196
1258660	250
1258672	62
1258838	-1604
1259003	1795
1259167	399
1259331	829
1259495	836
1259663	552
1259834	516
1260011	-870
1260192	-1270
1260374	-1030
1260559	-771
1260751	-827
1260949	-740
1261153	-640
1261357	-509
1261561	-370
1261769	-199
1261993	-271
1262205	-311
1262418	-357
1262619	511
1262813	985
1263003	157
1263091	399
1263114	2075
1263191	3043
1263332	424
1263359	1636
1263361	1758
1263372	2675
1263528	3884
1263542	5645
1263717	570
1263882	570
1264043	289
1264203	-450
1264361	-680
1264517	-943
1264819	-1580
1264968	-1157
1265062	-838
1265117	-386
1265264	-54
1265410	-575
1265553	-880
1265694	-823
1265835	-659
1265977	-553
1266115	141
1266253	-510
1266388	-395
1266522	-370
1266656	-716
1266789	-729
1267317	-487
1267448	-279
1267580	-204
1267848	-277
1267982	-51
1268116	-218
1268249	-218
1268517	-297
1268653	-79
1268788	-127
1268925	-177
1269068	-184
1269211	12
1269357	-67
1269503	-228
1269647	-193
1269791	-57
1269935	-123
1270078	-71
1270223	12
1270370	-104
1270517	-51
1270665	-148
1270812	-218
1270959	-137
1271105	-1228
1271250	-257
1271395	-189
1271538	-141
1271682	-173
1271823	-151
1271964	-101
1272104	53
1272243	135
1272382	177
1272521	44
1272660	17
1272798	60
1272938	23
1273078	192
1273216	161
1273353	230
1273480	-224
1273631	216
1273773	387
1274059	410
1274203	439
1274346	249
1274486	173
1274626	6
1274764	-180
1274903	86
1275041	-1967
1275181	-1026
1275317	-54
1275453	351
1275729	373
1275869	596
1276010	863
1276154	890
1276300	155
1276446	-947
1276598	-1336
1276754	-1282
1276917	-1237
1277077	-1206
1277235	-406
1277391	-228
1277545	-548
1277996	-1708
1278144	-1935
1278291	-2120
1278438	-2292
1278587	-2376
1278744	-2492
1278912	-1082
1279092	-328
1279269	-63
1279459	-519
1279658	-944
1279845	-980
1280027	-1228
1280206	-457
1280382	-195
1280553	428
1280719	-64
1280880	-1522
1281036	-826
1281190	527
1281341	1300
1281490	1693
1281639	1399
1281792	832
1281946	88
1282103	-663
1282262	-1746
1282744	-435
1282901	-725
1283057	-1270
1283214	-1748
1283376	-2074
1283537	-2178
1283701	-2158
1283870	-910
1284038	841
1284210	1004
1284385	897
1284563	661
1284740	114
1284915	836
1285084	2102
1285250	1314
1285412	806
1285572	1041
1285731	774
1285888	194
1286044	-368
1286198	-964
1286353	-1487
1286510	-1858
1286671	-74
1286833	1988
1286996	2644
1287161	296
1287325	-745
1287493	-1252
1287663	-1664
1287833	-1730
1288001	-1789
1288165	-1712
1288325	-1214
1288484	-385
1288642	100
1288800	260
1288959	249
1289122	287
1289289	270
1289464	232
1289647	257
1289832	143
1290011	-75
1290186	917
1290356	1733
1290526	1562
1290696	1158
1290864	642
1291032	271
1291196	100
1291362	-506
1291530	-1912
1291860	-1104
1292028	-855
1292192	-320
1292355	-94
1292521	12
1292690	163
1292860	159
1293030	-444
1293196	-229
1293359	231
1293521	41
1293680	-527
1293836	-2773
1293991	-1682
1294148	-1286
1294307	-1394
1294466	-1592
1294629	-1034
1294793	-226
1294960	62
1295126	385
1295290	804
1295453	1390
1295615	1616
1295777	1816
1295939	1924
1296101	1044
1296265	104
1296428	658
1296593	927
1296761	803
1296934	755
1297109	921
1297282	906
1297454	746
1297627	613
1297798	890
1297964	1704
1298126	1667
1298287	158
1298445	-295
1298601	-541
1298759	-738
1298918	-791
1299078	-645
1299242	-407
1299404	78
1299567	303
1299728	522
1299887	840
1300044	1124
1300202	279
1300363	-684
1300527	-933
1300695	-1045
1300862	518
1301029	3279
1301198	3480
1301369	2653
1301712	1038
1301879	442
1302044	114
1302207	-225
1302370	-619
1302694	-1031
1302855	-447
1303016	15
1303178	-63
1303345	-184
1303520	-170
1303696	-240
1303877	-283
1304063	-378
1304246	-705
1304426	-334
1304601	-71
1304774	-27
1304941	-40
1305107	-69
1305272	-169
1305438	-200
1305607	-272
1305774	-1050
1305939	-630
1306103	-476
1306268	-550
1306437	-539
1306610	-543
1306784	-344
1306955	-247
1307126	-31
1307297	85
1307466	33
1307636	74
1307803	421
1307970	325
1308135	107
1308301	112
1308466	146
1308635	135
1308804	191
1308976	323
1309146	220
1309316	78
1309486	314
1309661	217
1309834	170
1310003	85
1310171	52
1310337	414
1310498	250
1310660	107
1310823	136
1310986	78
1311152	16
1311317	112
1311484	141
1311657	101
1311833	126
1312008	-46
1312179	147
1312349	216
1312518	2
1312686	-47
1312857	124
1313025	-153
1313194	378
1313364	1007
1313531	1008
1313695	932
1313857	862
1314020	560
1314185	201
1314348	-295
1314510	-370
1314671	-5
1314829	194
1314988	593
1315149	1236
1315311	1233
1315472	954
1315635	241
1315800	-800
1315963	-105
1316127	666
1316289	593
1316453	323
1316616	-163
1316780	-488
1316943	-1118
1317105	-1910
1317265	-1584
1317421	-954
1317577	-661
1317734	-531
1317893	-439
1318053	-451
1318218	-370
1318386	-753
1318560	-579
1318734	675
1318908	1063
1319080	883
1319248	620
1319419	392
1319593	60
1319767	-337
1319943	-328
1320126	190
1320310	388
1320491	322
1320670	-113
1320848	-418
1321023	-592
1321193	-658
1321360	-667
1321527	-627
1321692	-396
1321858	-198
1322025	-2
1322192	-171
1322357	-163
1322524	0
1322690	-164
1322859	-213
1323032	-76
1323207	-102
1323382	-171
1323555	-203
1323725	-125
1323891	-193
1324054	-112
1324214	114
1324372	-498
1324531	-898
1324690	-346
1324851	-69
1325014	294
1325179	562
1325347	496
1325522	352
1325699	-215
1325876	15
1326048	504
1326218	618
1326390	1606
1326559	2561
1326728	2072
1326899	1369
1327071	680
1327242	170
1327409	-337
1327575	-621
1327739	-1081
1327904	-1818
1328070	-1530
1328238	-1115
1328406	-834
1328574	-452
1328740	-72
1328905	79
1329068	358
1329230	668
1329393	741
1329555	-162
1329721	631
1329890	1661
1330061	1770
1330232	1362
1330400	963
1330563	600
1330725	400
1330889	356
1331055	26
1331224	-414
1331393	-1159
1331559	-1303
1331721	132
1331883	467
1332046	303
1332208	-2
1332374	-97
1332545	-209
1332717	-282
1332890	-163
1333065	-258
1333243	-658
1333420	-776
1333594	216
1333763	1076
1333929	1167
1334092	819
1334256	540
1334418	192
1334583	30
1334744	155
1334905	347
1335070	-78
1335237	-1424
1335408	-2630
1335582	-2475
1335751	-1254
1335919	-594
1336087	-17
1336257	410
1336426	402
1336597	431
1336765	534
1336933	316
1337097	148
1337262	835
1337428	1106
1337598	1124
1337767	1067
1337937	779
1338103	742
1338267	493
1338432	157
1338597	82
1338764	0
1338934	-225
1339103	33
1339274	-9
1339449	-49
1339624	93
1339798	-18
1339972	-72
1340146	-104
1340317	-182
1340485	-357
1340650	-564
1340813	-96
1340972	-506
1341131	-673
1341287	-408
1341447	-331
1341610	-120
1341773	-195
1341938	-189
1342101	-63
1342263	-93
1342426	-69
1342589	-268
1342755	344
1342920	513
1343085	613
1343247	742
1343410	712
1343570	792
1343728	558
1343889	121
1344050	-352
1344212	-288
1344373	-166
1344536	56
1344705	88
1344877	208
1345048	370
1345221	-224
1345393	9
1345559	1446
1345725	1760
1345889	1298
1346053	781
1346217	340
1346383	52
1346550	-112
1346717	-138
1346882	-138
1347046	-282
1347211	-450
1347379	-568
1347546	-487
1347712	-863
1347876	-982
1348041	-732
1348205	-458
1348368	-247
1348528	-3
1348686	111
1348844	88
1349002	89
1349157	-17
1349314	-6
1349469	-63
1349626	-65
1349786	-85
1349947	-39
1361458	-13202
1361476	-13898
1361493	-4109
1399993	-4049
1442200	2054
1442505	-8651
1442558	32767
1460598	5287
1460929	-8709
1461125	32767
1485108	115
1485277	15
1485444	-53
1485615	-5
1485790	41
1485980	41
1486185	48
1486366	20
1486553	52
1486734	42
1486908	79
1487079	334
1487253	108
1487428	150
1487617	37
1487809	52
1487998	64
1488216	438
1488453	22
1488680	-43
1488894	-83
1489088	17
1489303	-63
1489527	-63
1489763	-46
1489969	-42
1490172	-31
1490386	-18
1490616	-3
1490821	30
1491018	6
1491220	90
1491433	159
1491653	146
1491849	82
1492032	-131
1492211	-153
1492388	-89
1492559	-151
1492727	-76
1492894	-120
1493060	241
1493222	294
1493387	294
1493575	201
1493755	129
1493936	71
1494122	82
1494303	56
1494476	66
1494650	75
1494853	103
1495072	132
1495299	101
1495524	124
1495758	166
1495990	201
1496215	205
1496433	188
1496646	209
1496848	194
1497041	195
1497255	186
1497524	183
1497749	163
1497969	89
1498194	89
1498417	-2
1498632	-93
1498831	-187
1499047	-188
1499259	-118
1499482	-50
1499702	-43
1499899	-31
1500108	-7
1500316	30
1500532	86
1500745	130
1500940	110
1501148	150
1501361	108
1501581	62
1501779	0
1501987	55
1502196	93
1502402	59
1502596	75
1502797	55
1503011	70
1503229	64
1503451	-25
1503649	-54
1503861	-144
1504068	-136
1504276	-113
1504478	-21
1504674	12
1504885	49
1505108	64
1505341	59
1505558	99
1505763	115
1505979	148
1506188	191
1506402	166
1506603	174
1506808	135
1507017	114
1507241	39
1507462	-32
1507665	-46
1507885	-93
1508108	-113
1508326	-144
1508533	-159
1508727	-156
1508916	-141
1509099	-80
1509281	17
1509461	-24
1509636	-47
1509819	-39
1510007	30
1510222	82
1510442	104
1510646	118
1510844	150
1511052	126
1511248	59
1511437	70
1511625	124
1511804	158
1511979	152
1512159	121
1512353	57
1512549	39
1512740	20
1512947	-65
1513154	-90
1513376	-34
1513598	15
1513799	38
1514021	-17
1514249	-34
1514463	20
1514661	48
1514868	63
1515068	49
1515269	50
1515471	90
1515670	126
1515864	214
1516055	152
1516241	180
1516425	143
1516623	135
1516840	82
1517073	73
1517290	57
1517487	50
1517693	-16
1517901	-38
1518120	-45
1518322	-29
1518549	-29
1518779	-36
1518995	-68
1519194	-38
1519385	17
1519583	71
1519787	101
1519999	121
1520215	111
1520424	77
1520618	111
1520825	90
1521034	99
1521246	103
1521459	133
1521660	59
1521877	-5
1522095	-18
1522326	-63
1522539	-118
1522743	-83
1522959	-79
1523179	-85
1523400	-60
1523608	-10
1523817	22
1524035	48
1524252	56
1524464	34
1524668	42
1524885	107
1525102	148
1525312	147
1525509	158
1525715	128
1525924	77
1526141	39
1526352	53
1526557	85
1526779	11
1526999	-53
1527218	-105
1527416	-45
1527625	13
1527842	66
1528071	108
1528294	106
1528503	88
1528724	34
1528949	53
1529173	90
1529387	104
1529594	110
1529816	77
1530026	64
1530222	55
1530411	46
1530605	55
1530804	93
1531016	130
1531229	110
1531430	88
1531641	22
1531857	-40
1532083	-83
1532306	-69
1532508	-7
1532713	0
1532920	-3
1533135	-14
1533347	35
1533545	79
1533757	95
1533970	89
1534193	95
1534411	95
1534616	104
1534836	139
1535049	117
1535273	110
1535481	84
1535688	71
1535916	52
1536163	11
1536398	24
1536611	-5
1536834	-18
1537067	-46
1537307	-40
1537526	17
1537721	45
1537908	19
1538096	-13
1538285	-6
1538488	81
1538685	86
1538890	118
1539119	163
1539364	180
1539604	148
1539822	121
1540039	103
1540249	77
1540454	77
1540650	86
1540841	99
1541043	75
1541255	35
1541479	-28
1541698	-16
1541900	-29
1542118	-115
1542343	-76
1542574	-25
1542797	45
1543000	53
1543213	88
1543427	71
1543647	84
1543862	97
1544060	114
1544271	104
1544481	64
1544692	66
1544894	112
1545120	135
1545363	114
1545608	151
1545821	100
1546023	30
1546236	-13
1546447	-9
1546665	15
1546862	15
1547071	1
1547282	-9
1547499	-18
1547715	-6
1547916	16
1548132	55
1548353	82
1548578	95
1548792	92
1548991	86
1549189	97
1549382	46
1549566	172
1549747	173
1549924	500
1550099	365
1550271	336
1550443	268
1550613	322
1550784	172
1550954	203
1551119	176
1551285	92
1551452	5
1551622	64
1551794	24
1551969	11
1552141	23
1552312	2
1552487	-63
1552666	-28
1552852	24
1553035	37
1553220	16
1553418	0
1553629	13
1553847	19
1554066	46
1554263	92
1554472	16
1554686	-2
1554906	6
1555117	53
1555319	50
1555522	56
1555721	-39
1555926	-90
1556119	-63
1556320	-42
1556544	-64
1556774	-65
1557007	-56
1557212	-38
1557425	-42
1557636	-51
1557847	11
1558052	78
1558249	97
1558461	100
1558705	119
1558942	162
1559151	158
1559354	93
1559573	59
1559812	17
1560054	2
1560278	-12
1560485	-112
1560710	-160
1560947	-142
1561179	-108
1561387	-24
1561593	44
1561806	68
1562028	15
1562247	-13
1562453	27
1562662	66
1562885	93
1563121	79
1563340	114
1563541	128
1563750	115
1563968	95
1564199	35
1564421	30
1564623	44
1564833	33
1565051	5
1565278	-45
1565494	-46
1565702	-47
1565926	-43
1566155	6
1566381	24
1566594	59
1566800	70
1567015	73
1567236	67
1567460	35
1567670	78
1567873	100
1568089	128
1568316	114
1568548	42
1568777	45
1568979	34
1569192	-6
1569412	71
1569631	44
1569841	-39
1570039	-101
1570246	-82
1570454	-32
1570669	44
1570874	78
1571073	71
1571284	37
1571509	8
1571733	5
1571939	57
1572133	135
1572333	165
1572536	136
1572744	119
1572942	152
1573142	122
1573361	144
1573583	125
1573801	52
1574012	38
1574208	19
1574408	1
1574615	26
1574827	2
1575040	-45
1575242	-18
1575455	-40
1575676	-29
1575898	24
1576118	24
1576330	46
1576532	143
1576740	81
1576953	128
1577172	174
1577375	181
1577572	187
1577775	128
1578007	126
1578242	110
1578459	107
1578682	85
1578920	70
1579155	17
1579380	-36
1579583	-32
1579800	-35
1580023	24
1580258	46
1580475	33
1580679	59
1580894	99
1581114	73
1581338	44
1581549	15
1581754	17
1581969	48
1582183	111
1582409	99
1582617	106
1582827	99
1583048	70
1583273	67
1583495	88
1583696	75
1583902	-31
1584120	-75
1584351	-79
1584585	-31
1584797	1
1585019	26
1585247	35
1585483	8
1585705	-18
1585908	15
1586121	44
1586342	84
1586576	59
1586804	111
1587012	135
1587239	151
1587476	85
1587710	44
1587934	37
1588136	52
1588354	20
1588577	45
1588809	9
1589020	-23
1589225	-67
1589438	-69
1589665	-38
1589908	33
1590119	64
1590326	60
1590548	45
1590785	52
1591022	111
1591239	151
1591443	125
1591659	82
1591878	103
1592103	139
1592309	155
1592515	126
1592735	103
1592966	71
1593192	-21
1593399	-76
1593622	-90
1593855	-38
1594088	-49
1594308	-12
1594510	-14
1594730	-14
1594955	53
1595186	34
1595402	56
1595623	50
1595859	60
1596094	78
1596316	130
1596521	140
1596737	111
1596963	73
1597194	19
1597406	34
1597631	15
1597864	-3
1598102	2
1598323	2
1598527	-2
1598749	13
1598984	16
1599217	-23
1599435	12
1599642	11
1599872	49
1600115	74
1600347	146
1600555	205
1600774	168
1600994	132
1601214	111
1601416	110
1601618	48
1601834	37
1602056	31
1602278	24
1602479	34
1602688	-24
1602901	-54
1603119	-21
1603347	49
1603554	67
1603770	-2
1604003	-78
1604242	-50
1604460	-9
1604664	48
1604878	79
1605112	117
1605355	139
1605579	100
1605784	119
1606010	88
1606242	68
1606477	89
1606702	67
1606905	46
1607123	-2
1607350	-65
1607594	-69
1607820	-39
1608026	-25
1608239	-42
1608446	-23
1608647	35
1608837	85
1609026	60
1609208	112
1609390	129
1609573	129
1609754	148
1609930	170
1610108	190
1610284	187
1610460	188
1610640	172
1610819	172
1610992	180
1611168	79
1611340	60
1611513	62
1611690	31
1611872	8
1612053	-6
1612243	-16
1612443	-27
1612660	-21
1612877	-12
1613074	30
1613265	20
1613456	73
1613640	88
1613821	101
1613995	172
1614173	177
1614344	202
1614510	208
1614681	205
1614856	187
1615041	137
1615223	140
1615406	139
1615592	152
1615780	86
1615964	79
1616144	90
1616331	57
1616520	-14
1616725	-32
1616932	-10
1617134	44
1617328	60
1617534	16
1617752	-42
1617978	-50
1618208	38
1618425	78
1618660	81
1618889	85
1619112	67
1619314	108
1619519	95
1619739	106
1620222	126
1620438	126
1620664	81
1620899	17
1621133	-14
1621366	-9
1621579	16
1621781	19
1622002	-29
1622232	0
1622446	44
1622640	89
1622838	75
1623036	64
1623243	74
1623474	86
1623686	86
1623892	101
1624108	122
1624322	122
1624541	112
1624748	122
1624970	48
1625192	19
1625413	20
1625640	15
1625848	19
1626079	-18
1626328	-18
1626568	-5
1626809	37
1627032	57
1627266	-2
1627502	-29
1627733	27
1627950	110
1628158	144
1628391	112
1628631	115
1628875	103
1629088	115
1629306	55
1629535	13
1629780	26
1630025	9
1630243	27
1630476	-13
1630712	-39
1630949	4
1631165	86
1631374	99
1631601	50
1631845	30
1632098	35
1632330	114
1632563	100
1632808	95
1633048	126
1633283	157
1633497	157
1633728	115
1633963	104
1634199	88
1634421	59
1634660	-12
1634910	-46
1635155	-85
1635373	-31
1635590	-38
1635816	-57
1636053	-35
1636292	-7
1636507	66
1636732	50
1636981	68
1637236	66
1637475	114
1637690	84
1637928	39
1638176	28
1638425	74
1638654	103
1638878	62
1639119	5
1639369	-17
1639606	8
1639817	34
1640065	16
1640322	19
1640575	28
1640800	73
1641019	104
1641264	78
1641514	75
1641751	71
1641961	90
1642188	46
1642423	64
1642677	97
1642896	159
1643119	148
1643351	122
1643585	53
1643810	45
1644015	27
1644250	-42
1644494	-51
1644733	-53
1644950	16
1645173	12
1645383	5
1645578	2
1645769	-27
1645957	4
1646145	78
1646332	126
1646518	170
1646704	195
1646887	186
1647079	132
1647280	97
1647493	68
1647717	75
1647944	124
1648147	132
1648358	67
1648572	5
1648787	-27
1649008	-65
1649214	-50
1649419	-46
1649617	-60
1649811	-79
1650006	-39
1650200	-34
1650388	35
1650569	73
1650756	37
1650943	0
1651135	11
1651326	45
1651518	90
1651705	158
1651886	250
1652074	201
1652278	158
1652507	128
1652719	122
1652915	132
1653127	70
1653342	37
1653559	17
1653759	12
1653976	-78
1654200	-67
1654430	-75
1654639	-12
1654844	-5
1655074	-7
1655310	22
1655543	57
1655756	100
1655979	111
1656215	136
1656460	111
1656679	124
1656877	122
1657083	86
1657301	97
1657537	63
1657767	63
1657975	75
1658196	4
1658431	-45
1658682	-39
1658911	-23
1659122	11
1659360	-23
1659606	19
1659858	15
1660104	42
1660321	78
1660541	52
1660773	60
1661011	143
1661252	184
1661461	202
1661681	159
1661915	112
1662160	118
1662400	128
1662613	99
1662846	48
1663084	-18
1663321	-90
1663529	-93
1663744	-115
1663969	-80
1664200	-9
1664419	9
1664626	5
1664861	41
1665100	57
1665335	99
1665569	168
1665779	148
1665997	86
1666212	86
1666440	125
1666655	101
1666863	86
1667088	68
1667319	44
1667554	20
1667764	-6
1667981	-68
1668211	-56
1668447	-35
1668680	19
1668886	11
1669111	16
1669336	19
1669560	74
1669770	85
1669971	77
1670189	70
1670412	75
1670647	62
1670879	111
1671088	150
1671308	144
1671529	130
1671746	78
1671953	67
1672150	23
1672356	-18
1672581	-46
1672821	-28
1673039	-2
1673242	22
1673459	-3
1673677	23
1673909	86
1674123	100
1674328	115
1674547	84
1674780	86
1675021	93
1675258	128
1675466	157
1675688	135
1675912	114
1676134	84
1676365	46
1676575	59
1676794	41
1677042	19
1677292	-53
1677544	-78
1677759	-64
1677984	-63
1678212	-39
1678443	-3
1678662	60
1678867	79
1679103	66
1679363	60
1679614	64
1679819	133
1680022	106
1680220	106
1680421	130
1680632	148
1680851	148
1681070	11
1681264	50
1681454	-36
1681644	-61
1681842	-74
1682042	-85
1682244	-94
1682431	28
1682611	42
1682790	-12
1682967	68
1683147	126
1683350	136
1683561	133
1683770	70
1683981	85
1684195	104
1684403	104
1684605	125
1684800	157
1684993	115
1685191	111
1685388	74
1685596	12
1685812	33
1686025	70
1686226	52
1686418	23
1686618	-20
1686829	-10
1687057	-18
1687273	66
1687473	37
1687691	9
1687931	97
1688163	85
1688382	56
1688586	93
1688800	99
1689035	103
1689277	97
1689498	101
1689697	115
1689898	71
1690105	63
1690327	57
1690561	15
1690776	23
1691010	-20
1691245	-5
1691477	66
1691689	112
1691890	73
1692106	27
1692338	4
1692567	16
1692778	108
1692977	124
1693190	92
1693427	53
1693652	52
1693863	42
1694080	33
1694290	28
1694510	8
1694735	60
1694968	22
1695192	75
1695421	9
1695657	-83
1695894	-45
1696112	-50
1696328	-53
1696538	-6
1696730	79
1696921	147
1697125	119
1697350	111
1697589	108
1697804	173
1698010	169
1698217	191
1698421	176
1698615	198
1698814	143
1699022	99
1699265	48
1699512	37
1699742	50
1699952	11
1700176	-21
1700404	-20
1700629	1
1700839	44
1701073	24
1701315	39
1701561	64
1701802	107
1702022	75
1702263	50
1702505	111
1702751	177
1702976	206
1703186	136
1703416	57
1703646	48
1703877	66
1704092	90
1704312	59
1704547	-2
1704798	-60
1705051	-53
1705263	-24
1705478	-21
1705697	37
1705921	57
1706167	62
1706387	112
1706595	101
1706826	106
1707056	104
1707282	146
1707488	136
1707702	66
1707926	35
1708152	49
1708387	75
1708599	82
1708813	52
1709036	-43
1709269	-136
1709503	-188
1709713	-24
1709929	5
1710154	44
1710383	-17
1710605	-31
1710810	35
1711014	44
1711223	95
1711436	158
1711654	148
1711864	168
1712062	128
1712280	115
1712501	82
1712722	52
1712931	86
1713128	100
1713340	62
1713560	35
1713794	13
1714036	22
1714258	19
1714492	-54
1714734	-47
1714978	13
1715222	49
1715441	42
1715675	13
1715911	63
1716147	122
1716379	147
1716588	157
1716824	100
1717062	56
1717309	50
1717544	66
1717755	64
1717980	46
1718222	-10
1718472	-42
1718711	-13
1718927	79
1719152	75
1719389	75
1719627	23
1719860	27
1720063	24
1720282	24
1720513	46
1720765	93
1721014	137
1721236	163
1721471	115
1721711	114
1721953	146
1722172	140
1722384	63
1722618	-3
1722863	-40
1723119	-28
1723342	34
1723550	-2
1723778	-38
1724014	-61
1724260	-29
1724485	81
1724704	88
1724949	78
1725182	62
1725397	93
1725601	92
1725822	100
1726060	121
1726304	112
1726524	152
1726730	115
1726952	56
1727169	37
1727404	16
1727622	46
1727823	41
1728043	-17
1728305	-34
1728570	1
1728824	39
1729063	20
1729303	20
1729549	57
1729797	77
1730037	135
1730260	130
1730503	90
1730762	85
1731021	121
1731270	135
1731485	128
1731711	31
1731951	-68
1732188	-47
1732402	-23
1732640	-27
1732888	-53
1733141	-18
1733361	27
1733603	24
1733849	13
1734088	13
1734299	70
1734524	45
1734765	74
1735010	93
1735240	152
1735460	129
1735705	74
1735950	41
1736182	79
1736391	130
1736615	93
1736857	5
1737102	-61
1737327	-14
1737541	-35
1737785	-56
1738039	-47
1738277	-7
1738488	60
1738708	8
1738933	26
1739170	70
1739394	158
1739601	163
1739839	101
1740089	90
1740347	48
1740581	27
1740788	34
1741011	9
1741234	24
1741477	34
1741691	38
1741925	-16
1742165	-57
1742407	-36
1742624	19
1742854	2
1743103	38
1743346	81
1743570	140
1743784	104
1744022	55
1744267	16
1744505	6
1744720	86
1744947	68
1745185	90
1745425	119
1745657	159
1745868	139
1746099	5
1746345	-45
1746602	-64
1746847	-9
1747075	26
1747323	9
1747561	67
1747781	74
1747975	84
1748166	125
1748354	110
1748543	100
1748732	35
1748920	41
1749106	41
1749293	34
1749480	53
1749666	99
1749849	162
1750035	90
1750225	66
1750416	49
1750604	74
1750785	85
1750960	104
1751138	28
1751321	-35
1751519	-20
1751723	-23
1751915	59
1752108	30
1752313	79
1752528	106
1752734	129
1752928	114
1753132	85
1753354	63
1753602	79
1753848	75
1754066	101
1754296	73
1754523	96
1754732	129
1754948	82
1780920	636
1781513	-13054
1781678	9775
1781811	-32768
1782096	-32768
1788173	-32768
1790088	-32768
1790644	-32768
1791729	-32768
1791827	-29725
1791860	-32768
1792004	15853
1792391	32767
1792428	-32768
1793620	32767
1793710	-32768
1793730	21909
1794609	-32768
1794657	-4415
1800080	595
1800263	526
1800450	507
1800646	471
1800848	465
1801046	363
1801249	369
1801463	358
1801681	435
1801879	314
1802069	213
1802259	195
1802452	154
1802653	96
1802849	59
1803040	78
1803234	139
1803437	55
1803626	471
1803826	27
1804038	84
1804253	96
1804460	48
1804655	119
1804855	188
1805056	119
1805267	130
1805468	100
1805691	48
1805905	-45
1806107	-112
1806325	-83
1806548	-85
1806772	-63
1806997	-69
1807201	-24
1807408	-51
1807617	-45
1807826	-5
1808034	5
1808238	20
1808435	2
1808640	74
1808840	107
1809048	107
1809254	119
1809459	45
1809649	-17
1809848	28
1810048	78
1810251	66
1810459	85
1810668	66
1810863	17
1811074	17
1811282	-21
1811493	-50
1811704	-53
1811898	-63
1812093	-32
1812293	-7
1812498	-18
1812699	-25
1812911	9
1813139	86
1813364	96
1813579	78
1813779	75
1813992	124
1814205	135
1814420	112
1814628	52
1814825	50
1815034	95
1815234	75
1815421	85
1815603	85
1815789	33
1815981	5
1816199	-7
1816427	-5
1816658	4
1816879	-7
1817092	-6
1817306	19
1817515	31
1817719	17
1817913	22
1818125	90
1818339	103
1818577	101
1818798	33
1819017	59
1819249	126
1819479	122
1819706	90
1819912	19
1820129	53
1820344	77
1820555	4
1820748	-13
1820946	50
1821141	28
1821336	4
1821531	-20
1821713	-28
1821897	37
1822075	66
1822249	104
1822420	86
1822593	81
1822761	60
1822932	90
1823102	89
1823273	107
1823443	57
1823614	56
1823790	114
1823971	97
1824162	48
1824344	-6
1824528	-18
1824722	39
1824921	100
1825132	34
1825334	79
1825541	135
1825752	37
1825976	15
1826197	38
1826410	9
1826610	-226
1826791	234
1826968	71
1827145	124
1827322	270
1827503	278
1827687	465
1827881	170
1828073	101
1828261	44
1828458	-93
1828657	-34
1828874	55
1829100	106
1829337	73
1829568	42
1829797	114
1830011	82
1830212	151
1830401	119
1830590	139
1830778	165
1830971	162
1831172	180
1831379	144
1831574	173
1831789	148
1832008	199
1832232	246
1832455	220
1832667	173
1832888	117
1833105	137
1833309	67
1833505	2
1833711	6
1833927	15
1834147	17
1834361	-43
1834563	-85
1834771	-82
1834977	-58
1835190	-56
1835406	-54
1835611	-83
1835821	-25
1836034	19
1836245	-7
1836458	-7
1836657	-32
1836856	-16
1837067	19
1837296	39
1837529	52
1837757	9
1837976	34
1838202	56
1838422	34
1838640	1
1838850	-20
1839046	-53
1839245	-35
1839448	-40
1839654	-82
1839870	-90
1840089	-83
1840295	-71
1840508	-29
1840722	-7
1840936	-13
1841152	-20
1841358	-28
1841577	19
1841801	41
1842025	53
1842244	68
1842462	89
1842678	125
1842891	117
1843090	77
1843288	79
1843489	75
1843694	56
1843903	17
1844107	26
1844323	31
1844541	-3
1844766	-18
1883890	-16168
1883900	-30941
1890193	148
1890399	249
1890605	232
1890797	163
1890984	151
1891191	180
1891449	223
1891695	197
1891899	56
1892105	48
1892320	46
1892537	38
1892749	26
1892986	42
1893241	24
1893496	68
1893742	37
1893975	11
1894209	79
1894451	70
1894696	22
1894958	38
1895231	57
1895492	92
1895733	-3
1895965	62
1896207	-29
1896470	-54
1896709	-72
1896948	-74
1897196	-29
1897425	-14
1897664	12
1897920	-9
1898153	-18
1898380	-9
1898619	92
1898867	184
1899101	9
1899308	-6
1899524	11
1899748	16
1899982	23
1900204	6
1900421	2
1900653	19
1900894	59
1901129	28
1901345	-27
1901570	-17
1901808	-3
1902029	70
1902264	148
1902524	141
1902783	67
1903002	60
1903223	103
1903447	67
1903657	-6
1903891	30
1904140	67
1904399	73
1904645	38
1904890	74
1905141	64
1905393	63
1905639	45
1905866	0
1906080	-10
1906303	-35
1906543	-13
1906788	11
1907033	34
1907263	33
1907501	49
1907747	86
1907991	115
1908211	99
1908438	154
1908663	151
1908887	143
1909100	78
1909310	42
1909529	45
1909759	50
1909974	19
1910188	50
1910411	67
1910629	63
1910838	34
1911036	-16
1911241	-38
1911454	-32
1911676	15
1911901	45
1912118	24
1912328	41
1912551	57
1912776	79
1913003	118
1913218	118
1913433	115
1913657	95
1913887	101
1914108	90
1914322	103
1914551	158
1914783	107
1915012	77
1915231	20
1915443	34
1915663	27
1915887	-2
1916108	-12
1916315	-28
1916535	6
1916773	45
1917011	49
1917240	31
1917455	24
1917680	55
1917910	64
1918134	82
1918349	84
1918579	108
1918809	107
1919032	20
1919253	85
1919490	103
1919730	110
1919968	68
1920184	4
1920402	-29
1920630	-60
1920865	-74
1921087	-27
1921314	15
1921547	41
1921798	42
1922036	24
1922244	12
1922448	124
1922652	184
1922853	88
1923063	0
1923260	155
1923485	-276
1923713	555
1923925	901
1924127	3370
1924323	1563
1924507	1066
1924694	846
1924874	669
1925050	538
1925223	624
1925396	1365
1925566	1333
1925737	524
1925908	784
1926077	-448
1926246	-244
1926412	-367
1926574	-162
1926736	-94
1926893	-112
1927049	-107
1927218	-94
1927404	-40
1927616	-50
1927843	-2
1928072	-36
1928310	-16
1928557	-7
1928805	-3
1929051	-47
1929297	9
1929537	-63
1929777	-61
1930000	-138
1930219	-82
1930493	-85
1930769	-112
1931001	-87
1931252	52
1931487	37
1931684	-27
1931883	-18
1932079	27
1932269	126
1932492	128
1932752	97
1932998	1
1933213	1
1933434	60
1933657	41
1933873	2
1934086	-32
1934280	-63
1934480	-6
1934690	60
1934915	41
1935139	38
1935363	-24
1935569	-57
1935800	-24
1936035	-57
1936273	30
1936490	28
1936701	62
1936928	86
1937150	38
1937350	-21
1937560	44
1937774	114
1937998	90
1938214	23
1938431	-10
1938673	13
1938917	38
1939155	52
1939365	-2
1939571	59
1939783	60
1939999	52
1940221	30
1940441	-40
1940650	-47
1940873	-45
1941102	-25
1941330	-25
1941538	-38
1941757	16
1941985	55
1942221	96
1942453	66
1942679	110
1942912	62
1943144	50
1943375	11
1943581	8
1943804	38
1944029	27
1944243	11
1944479	68
1944729	124
1944981	82
1945212	39
1945440	79
1945675	73
1945911	16
1946143	22
1946356	24
1946585	75
1946822	50
1947065	42
1947300	20
1947515	38
1947748	79
1947981	89
1948210	82
1948426	41
1948645	70
1948880	92
1949122	81
1949359	38
1949573	-13
1949799	8
1950031	12
1950266	-13
1950480	-9
1950711	-24
1950950	-53
1951181	-38
1951402	-51
1951626	-10
1951866	37
1952105	28
1952333	26
1952549	23
1952775	52
1952997	81
1953220	67
1953422	46
1953631	26
1953830	8
1954032	28
1954231	35
1954439	48
1954664	84
1954901	122
1955130	27
1955352	5
1955587	-2
1955819	-2
1956039	-29
1956240	-38
1956453	4
1956678	8
1956916	41
1957148	28
1957353	34
1957570	67
1957792	99
1958023	93
1958242	45
1958468	73
1958706	92
1958946	75
1959183	44
1959394	2
1959614	53
1959831	103
1960046	42
1960257	45
1960484	12
1960718	-2
1960953	0
1961167	-12
1961387	30
1961611	77
1961839	92
1962048	75
1962268	95
1962496	95
1962733	81
1962969	42
1963179	9
1963401	33
1963625	41
1963857	55
1964093	9
1964317	4
1964555	55
1964799	-10
1965045	-14
1965282	-80
1965506	-51
1965742	-3
1965978	4
1966216	0
1966438	0
1966650	63
1966882	89
1967125	100
1967369	55
1967598	23
1967836	103
1968082	107
1968315	20
1968529	53
1968735	26
1968948	66
1969162	41
1969364	20
1969566	70
1969798	57
1970037	67
1970287	84
1970515	133
1970752	108
1970986	168
1971219	118
1971439	59
1971651	60
1971876	95
1972111	122
1972352	99
1972578	78
1972822	93
1973066	108
1973315	88
1973553	44
1973787	49
1974025	11
1974256	-42
1974462	-97
1974674	-78
1974902	-105
1975111	-333
1975319	-185
1975521	31
1975719	132
1975911	447
1976096	191
1976279	358
1976461	542
1976637	482
1976816	168
1976992	106
1977170	224
1977346	376
1977521	861
1977692	64
1977862	-31
1978033	57
1978197	89
1978359	-109
1978518	-138
1978678	13
1978840	52
1978996	144
1979155	139
1979315	136
1979477	110
1979642	-76
1979809	62
1980139	-43
1980311	-51
1980492	-67
1980673	42
1980855	33
1981054	92
1981260	64
1981477	30
1981697	64
1981905	46
1982117	111
1982338	41
1982564	81
1982789	19
1983015	-28
1983263	-10
1983513	-17
1983740	-46
1983961	31
1984201	33
1984461	16
1984684	-6
1984914	15
1985157	38
1985427	2
1985669	-10
1985914	24
1986177	59
1986436	53
1986675	16
1986903	75
1987152	79
1987420	81
1987678	27
1987900	9
1988133	8
1988422	-31
1988707	-43
1988965	-79
1989219	-16
1989492	37
1989766	8
1990034	1
1990289	6
1990560	30
1990828	101
1991081	50
1991304	-2
1991522	52
1991761	71
1992022	70
1992282	63
1992510	2
1992742	53
1992984	30
1993241	1
1993469	-14
1993699	-3
1993958	0
1994229	-28
1994484	-60
1994721	28
1994969	166
1995229	42
1995487	1
1995718	31
1995956	82
1996202	136
1996449	140
1996674	11
1996923	13
1997187	37
1997450	16
1997678	-24
1997908	-24
1998145	1
1998393	-5
1998632	2
1998849	42
1999089	57
1999351	34
1999625	71
1999889	55
2000131	66
2000380	81
2000625	103
2000870	73
2001104	73
2001324	45
2001585	111
2001854	79
2002104	22
2002326	27
2002564	56
2002812	35
2003034	-28
2003241	9
2003468	42
2003724	49
2003982	161
2004217	20
2004457	71
2004701	101
2004945	158
2005186	206
2005417	210
2005658	187
2005901	176
2006124	180
2006326	293
2006517	191
2006702	93
2006885	79
2007071	169
2007254	42
2007486	104
2007751	-57
2008008	-49
2008257	-28
2008484	35
2008718	-14
2008949	-9
2009178	56
2009399	1
2009603	46
2009824	60
2010055	52
2010262	2503
2010462	795
2010672	910
2010889	533
2011119	358
2011348	181
2011577	89
2011804	101
2012010	-79
2012218	-90
2012429	-133
2012649	-169
2012857	-224
2013085	-236
2013322	-244
2013564	-229
2013812	-149
2014046	-153
2014271	-9
2014507	-24
2014733	11
2014960	5
2015180	0
2015427	4
2015679	31
2015917	-14
2016139	-2
2016358	19
2016578	50
2016797	13
2017019	34
2017268	45
2017535	26
2017798	28
2018050	6
2018280	-20
2018525	-43
2018773	-24
2019032	6
2019260	35
2019479	52
2019728	74
2019988	96
2020245	55
2020483	57
2020735	68
2020992	50
2021251	67
2021489	-5
2021727	75
2021976	46
2022230	38
2022471	-18
2022693	-9
2022935	53
2023184	66
2023427	42
2023649	13
2023894	4
2024143	-14
2024390	-54
2024616	-24
2024854	-9
2025095	-25
2025328	1
2025548	-3
2025783	33
2026016	50
2026248	108
2026463	30
2026675	60
2026910	90
2027154	103
2027398	71
2027628	13
2027860	13
2028102	15
2028343	28
2028582	35
2028801	0
2029024	1
2029259	-12
2029493	-14
2029729	-20
2029944	0
2030176	-9
2030421	33
2030672	-10
2030917	-34
2031135	-10
2031364	31
2031602	100
2031842	112
2032059	68
2032268	73
2032495	86
2032736	55
2032996	48
2033222	49
2033469	74
2033725	64
2033978	28
2034205	-7
2034436	22
2034677	1
2034930	-79
2035161	-68
2035409	-50
2035669	-5
2035925	23
2036163	35
2036406	37
2036656	50
2036903	100
2037126	101
2037354	133
2037602	114
2037856	128
2038092	57
2038314	49
2038562	64
2038814	95
2039050	23
2039289	63
2039534	59
2039782	-20
2040006	-53
2040234	-34
2040476	9
2040721	11
2040952	-18
2041168	-10
2041404	63
2041657	112
2041913	107
2042146	82
2042381	90
2042626	96
2042875	90
2043111	37
2043324	48
2043554	71
2043794	81
2044039	49
2044274	24
2044489	-16
2044723	-43
2044966	-79
2045199	-76
2045415	-57
2045625	-17
2045851	28
2046087	41
2046328	68
2046545	93
2046756	129
2046988	163
2047230	124
2047471	126
2047687	74
2047909	96
2048150	117
2048399	79
2048648	23
2048877	-20
2049103	-7
2049333	-27
2049565	-61
2049774	-51
2049986	-14
2050219	-38
2050472	-51
2050724	-5
2050948	26
2051175	67
2051411	81
2051647	118
2051883	136
2052106	152
2052338	97
2052582	92
2052832	84
2053064	64
2053278	78
2053503	99
2053737	70
2053979	-12
2054202	-64
2054413	-32
2054647	9
2054893	26
2055146	26
2055383	62
2055604	57
2055847	77
2056107	121
2056366	140
2056602	103
2056834	95
2057079	119
2057321	125
2057562	96
2057783	88
2058028	111
2058275	67
2058525	-6
2058749	-71
2058980	-64
2059217	-64
2059457	8
2059682	-9
2059899	50
2060132	73
2060375	73
2060618	111
2060841	106
2061073	93
2061312	75
2061553	78
2061776	41
2061992	45
2062219	85
2062459	53
2062696	30
2062912	-13
2063140	-3
2063377	-36
2063613	-67
2063839	-82
2064063	-56
2064305	-40
2064543	-17
2064775	-6
2064989	24
2065215	55
2065448	114
2065688	106
2065916	74
2066132	71
2066361	88
2066594	96
2066836	77
2067057	28
2067287	74
2067531	78
2067775	93
2068006	81
2068218	23
2068442	5
2068667	17
2068894	59
2069090	2
2069280	-251
2069472	-160
2069670	-134
2069876	-56
2070095	-32
2070297	-17
2070502	44
2070706	24
2070912	95
2071116	201
2071314	150
2071496	82
2071681	-203
2071866	-97
2072050	45
2072235	38
2072419	143
2072597	130
2072770	48
2072943	63
2073119	81
2073296	53
2073476	81
2073662	125
2073851	186
2074039	62
2074224	112
2074401	250
2074576	221
2074752	237
2074927	161
2075105	45
2075285	26
2075468	11
2075658	74
2075851	16
2076050	17
2076254	38
2076459	73
2076665	8
2076857	141
2077043	104
2077230	90
2077413	46
2077595	73
2077777	166
2077958	168
2078136	84
2078317	192
2078489	78
2078658	9
2078831	92
2079004	62
2079175	38
2079347	67
2079519	90
2079692	49
2079862	28
2080034	39
2080209	77
2080386	12
2080562	-38
2080740	53
2080921	35
2081103	93
2081281	30
2081458	-5
2081634	15
2081812	42
2081983	20
2082151	13
2082319	-24
2082485	30
2082645	44
2082804	19
2082973	31
2083169	73
2083381	101
2083601	121
2083818	132
2084041	128
2084262	144
2084476	146
2084685	139
2084894	130
2085107	119
2085325	106
2085527	74
2085742	96
2085945	108
2086138	93
2086340	108
2086545	104
2086744	63
2086953	79
2087168	68
2087382	9
2087593	-6
2087793	-10
2087995	9
2088200	144
2088397	150
2088591	177
2088783	219
2088973	202
2089162	1187
2089339	361
2089526	315
2089712	275
2089904	254
2090103	198
2090301	179
2090523	122
2090756	79
2090995	103
2091227	53
2091441	44
2091654	67
2091869	53
2092096	27
2092319	17
2092535	-46
2092744	-18
2092963	4
2093188	-6
2093424	17
2093657	77
2093889	143
2094133	139
2094380	115
2094617	48
2094828	48
2095047	60
2095271	57
2095496	57
2095703	66
2095926	111
2096159	77
2096386	42
2096608	26
2096820	-14
2097019	-28
2097231	-50
2097445	-65
2097659	-31
2097875	20
2098082	9
2098290	34
2098502	81
2098708	111
2098906	121
2099117	140
2099331	150
2099544	158
2099754	165
2099956	68
2100154	27
2100361	15
2100571	38
2100790	101
2101010	110
2101221	57
2101425	44
2101639	48
2101859	20
2102080	-18
2102297	-36
2102498	-20
2102711	17
2102922	88
2103134	26
2103351	59
2103567	59
2103767	78
2103977	107
2104189	103
2104409	118
2104632	144
2104846	97
2105049	62
2105261	85
2105471	79
2105667	42
2105870	56
2106076	49
2106285	50
2106500	23
2106702	-6
2106920	-2
2107137	4
2107354	6
2107569	15
2107768	22
2107977	31
2108189	59
2108404	68
2108622	55
2108827	44
2109042	100
2109261	118
2109483	132
2109708	84
2109926	31
2110143	39
2110369	46
2110603	39
2110833	27
2111049	-9
2111259	-21
2111474	-54
2111689	8
2111909	-79
2112113	-57
2112324	-43
2112542	-12
2112763	13
2112986	33
2113185	77
2113387	155
2113592	157
2113799	163
2114010	117
2114218	93
2114411	55
2114610	34
2114808	73
2115014	141
2115225	26
2115441	38
2115646	19
2115865	24
2116084	42
2116304	77
2116522	78
2116720	57
2116929	52
2117139	73
2117359	125
2117583	111
2117790	64
2117987	85
2118190	107
2118406	121
2118638	112
2118869	104
2119080	48
2119276	33
2119472	2815
2119656	2088
2119838	-1950
2120013	2853
2120184	1158
2120351	-2321
2120514	-509
2120675	-1731
2120832	-747
2120984	-694
2121132	-578
2121279	-371
2121425	-305
2121570	-257
2121714	-175
2121857	-27
2121998	-130
2122142	378
2122284	512
2122425	391
2122570	442
2122719	271
2122869	428
2123020	450
2123173	358
2123329	318
2123486	241
2123648	187
2123820	135
2124014	172
2124236	77
2124455	130
2124702	-18
2124963	-16
2125217	23
2125475	-69
2125723	-79
2125954	-32
2126188	224
2126412	-71
2126652	-10
2126908	112
2127163	35
2127397	50
2127637	45
2127893	38
2128149	90
2128379	88
2128609	472
2128852	8
2129103	-50
2129332	-180
2129566	-203
2129805	-156
2130052	-166
2130280	-60
2130527	-36
2130771	-47
2130995	-56
2131232	-12
2131475	-3
2131714	15
2131933	22
2132170	13
2132413	24
2132639	9
2132864	57
2133107	41
2133358	6
2133617	9
2133853	-38
2134093	-47
2134341	-130
2134581	-123
2134802	-91
2135012	-98
2135241	-64
2135483	-28
2135708	34
2135947	62
2136199	73
2136437	110
2136651	95
2136877	89
2137115	53
2137356	13
2137584	-12
2137827	20
2138070	38
2138290	33
2138519	27
2138746	22
2138962	-27
2139187	-60
2139426	-36
2139659	-45
2139887	-25
2140119	-2
2140351	19
2140575	30
2140778	48
2140989	95
2141203	133
2141427	140
2141643	112
2141862	81
2142098	95
2142337	84
2142572	64
2142782	55
2142996	71
2143216	19
2143449	-14
2143672	-49
2143890	-39
2144122	-38
2144352	-28
2144577	-25
2144795	23
2145037	19
2145290	39
2145542	50
2145767	26
2145993	68
2146225	112
2146461	139
2146679	124
2146906	119
2147148	106
2147393	42
2147615	11
2147837	27
2148067	15
2148297	-35
2148507	-51
2148727	-10
2148950	-31
2149176	-21
2149397	77
2149639	1
2149862	108
2150069	66
2150260	70
2150453	114
2150648	136
2150852	136
2151057	151
2151261	180
2151458	135
2151661	135
2151862	141
2152068	99
2152277	55
2152492	37
2152697	20
2152916	45
2153145	17
2153374	-75
2153602	-130
2153818	-133
2154025	-58
2154240	17
2154462	49
2154690	38
2154919	22
2155133	68
2155346	135
2155557	148
2155767	136
2155981	110
2156188	81
2156411	103
2156646	130
2156874	117
2157084	96
2157289	59
2157505	70
2157738	26
2157969	8
2158181	24
2158391	63
2158610	97
2158832	82
2159054	13
2159262	13
2159477	56
2159703	114
2159928	70
2160149	75
2160364	49
2160585	108
2160815	135
2161048	121
2161266	60
2161473	63
2161687	59
2161903	49
2162122	52
2162339	11
2162555	71
2162787	24
2163025	-10
2163261	-35
2163482	-51
2163693	-36
2163914	-13
2164150	57
2164397	93
2164637	88
2164855	103
2165090	101
2165330	96
2165577	90
2165813	73
2166030	53
2166254	53
2166492	59
2166740	56
2166985	38
2167206	1
2167430	-13
2167661	-32
2167897	-16
2168137	-12
2168359	-7
2168589	35
2168825	56
2169063	85
2169291	78
2169511	93
2169742	68
2169976	121
2170210	125
2170434	106
2170646	115
2170873	121
2171107	92
2171346	45
2171581	2
2171800	-16
2172025	-14
2172257	-56
2172488	-86
2172714	-69
2172925	-27
2173139	2
2173360	52
2173590	41
2173813	52
2174035	78
2174277	96
2174514	141
2174748	141
2174967	114
2175196	125
2175431	110
2175665	95
2175889	60
2176098	41
2176318	35
2176539	-3
2176757	-21
2176959	-7
2177166	27
2177378	50
2177598	75
2177813	30
2178021	24
2178249	48
2178487	78
2178713	62
2178925	82
2179147	99
2179378	107
2179608	111
2179824	60
2180037	46
2180258	77
2180490	71
2180722	67
2180942	24
2181162	30
2181396	22
2181634	28
2181867	48
2182087	50
2182298	62
2182528	23
2182754	23
2182976	38
2183192	52
2183423	71
2183648	92
2183879	68
2184092	55
2184326	85
2184576	114
2184824	95
2185057	59
2185277	59
2185507	64
2185740	15
2185957	-12
2186174	-38
2186407	-64
2186647	-42
2186897	-10
2187126	38
2187344	41
2187575	35
2187818	46
2188059	62
2188276	71
2188494	101
2188723	132
2188958	124
2189181	92
2189393	67
2189619	71
2189852	60
2190090	64
2190302	77
2190505	53
2190716	27
2190923	22
2191134	15
2191334	59
2191546	67
2191773	96
2192005	70
2192229	132
2192442	232
2192661	195
2192874	148
2193094	92
2193300	52
2193516	37
2193740	42
2193963	79
2194178	82
2194391	100
2194619	125
2194857	85
2195105	33
2195347	-17
2195571	23
2195798	-3
2196027	9
2196254	35
2196475	62
2196702	93
2196939	119
2197181	135
2197423	90
2197651	60
2197887	66
2198127	67
2198372	86
2198604	68
2198823	81
2199051	74
2199287	71
2199535	56
2199771	37
2200007	34
2200246	44
2200487	38
2200716	33
2200945	30
2201186	49
2201434	33
2201677	38
2201900	53
2202127	99
2202355	82
2202580	85
2202797	64
2203020	75
2203253	77
2203490	108
2203718	71
2203934	50
2204159	53
2204390	41
2204621	17
2204844	-16
2242143	746
2247130	-1626
2247150	-4273
2266366	9459
2269515	-2875
2269533	994
2287525	-32768
2287537	-32768
2287579	-19655
2300108	1379
2300132	-4916
2300171	-7135
2300189	1202
2354158	-13692
2361571	-32768
2373122	4227
2377809	-1012
2382464	-8825
2385105	1175
2385316	1052
2385552	985
2385788	902
2385998	774
2386191	752
2386385	704
2386568	664
2386778	593
2387015	515
2387221	377
2387483	344
2387757	224
2387984	119
2388188	56
2388410	114
2388643	92
2388844	-24
2389052	64
2389255	55
2389487	53
2389742	104
2389975	158
2390185	159
2390377	370
2390577	312
2390797	352
2391039	381
2391259	391
2391516	440
2391790	405
2392042	260
2392252	322
2392475	358
2392706	310
2392912	249
2393174	194
2393437	-38
2393649	-145
2393908	-79
2394181	2
2394417	70
2394686	56
2394954	42
2395175	86
2395444	183
2395686	144
2395910	147
2396195	154
2396455	159
2396697	181
2396972	191
2397231	165
2397445	165
2397664	169
2397884	173
2398080	159
2398281	299
2398468	257
2398651	16
2398852	46
2399066	104
2399275	23
2399468	-54
2399662	-111
2399867	-136
2400097	-108
2400321	4
2400541	27
2400756	34
2400965	-2
2401180	-16
2401394	4
2401600	-3
2401805	41
2402012	-140
2402206	44
2402393	112
2402586	-944
2402785	-319
2403020	-153
2403245	-102
2403488	-51
2403721	-69
2403941	55
2404182	117
2404431	144
2404680	63
2404897	96
2405131	146
2405398	119
2405633	-24
2405865	75
2406123	44
2406346	-53
2406572	-27
2406817	-80
2407036	-113
2407277	-83
2407531	35
2407762	38
2408019	93
2408297	129
2408528	1
2408770	57
2409017	125
2409231	88
2409494	168
2409782	90
2410029	38
2410256	39
2410516	45
2410757	24
2410991	64
2411242	67
2411516	2
2411760	-60
2411995	2
2412258	12
2412498	44
2412724	6
2412989	-40
2413234	-101
2413443	-203
2413664	-50
2413882	-104
2414087	-120
2414302	-38
2414500	-17
2414702	31
2414902	41
2415103	15
2415320	-76
2415561	-51
2415769	-61
2415966	66
2416174	135
2416380	119
2416582	126
2416794	106
2416984	52
2417174	107
2417359	88
2417542	-17
2417729	-120
2417945	-126
2418144	-102
2418348	52
2418575	139
2418809	176
2419050	121
2419296	55
2419538	-3
2419774	8
2419977	16
2420180	11
2420373	-50
2420567	-125
2420774	-112
2420995	-112
2421197	-13
2421417	63
2421631	82
2421847	125
2422070	124
2422293	203
2422522	232
2422741	198
2422965	191
2423191	180
2423434	170
2423670	168
2423908	162
2424141	132
2424371	151
2424587	46
2424789	20
2424989	20
2425177	24
2425403	49
2425640	-40
2425877	-16
2426142	41
2426408	42
2426634	17
2426872	84
2427122	93
2427357	23
2427561	13
2427794	53
2428056	77
2428273	31
2428474	46
2428684	119
2428888	205
2429076	152
2429273	184
2429476	201
2429677	192
2429864	82
2430053	42
2430239	-31
2430429	-116
2430633	-56
2430835	-6
2431025	75
2431214	162
2431409	208
2431601	179
2431786	128
2431968	75
2432147	20
2432330	-49
2432522	-72
2432747	9
2432966	17
2433162	27
2433354	71
2433548	96
2433742	112
2433943	95
2434137	49
2434333	22
2434539	85
2434755	161
2434947	122
2435143	176
2435341	154
2435543	125
2435754	93
2435974	82
2436200	81
2436424	67
2436633	56
2436837	128
2437038	92
2437237	84
2437437	88
2437638	49
2437840	-3
2438029	-57
2438226	-13
2438426	-2
2438648	12
2438892	-6
2439108	-60
2439333	13
2439560	-2
2439793	-21
2440028	-5
2440238	-7
2440458	73
2440678	92
2440900	71
2441093	-47
2441292	-43
2441478	-12
2441670	38
2441874	33
2442087	4
2442280	-158
2442476	-93
2442681	-46
2442889	-23
2443097	-7
2443306	34
2443510	8
2443706	11
2443924	73
2444143	89
2444350	66
2444544	35
2444732	75
2444933	74
2445139	66
2445358	41
2445556	-12
2445756	-17
2445962	-27
2446162	-42
2446360	-39
2446627	-36
2446874	-42
2447089	-38
2447287	-29
2447488	26
2447706	166
2447903	177
2448114	184
2448347	174
2448610	135
2448857	128
2449112	86
2449365	-14
2449591	-18
2449795	-18
2449992	-54
2450188	-27
2450395	15
2450599	50
2450806	66
2451054	31
2451319	55
2451574	28
2451788	97
2452013	77
2452239	136
2452479	169
2452714	166
2452955	132
2453207	93
2453435	71
2453639	106
2453843	-47
2454035	2
2454232	129
2454425	147
2454615	79
2454821	9
2455034	64
2455250	50
2455465	82
2455660	22
2455865	13
2456074	2
2456290	0
2456528	-3
2456765	0
2456985	38
2457222	35
2457463	49
2457713	67
2457938	56
2458188	-7
2458445	-24
2458679	49
2458911	81
2459166	99
2459405	114
2459626	37
2459857	-9
2460062	-3
2460274	20
2460504	24
2460756	4
2460996	1
2461246	-16
2461474	6
2461709	27
2461948	26
2462183	-2
2462414	-2
2462654	0
2462898	107
2463129	-783
2463337	-225
2463536	-136
2463728	-34
2463933	-14
2464188	-7
2464450	39
2464678	-191
2464889	12
2465089	11
2465288	33
2465495	31
2465722	35
2465975	57
2466193	31
2466394	42
2466583	27
2466766	48
2466953	22
2467150	-21
2467345	-35
2467540	20
2467738	30
2467951	11
2468152	-10
2468342	-51
2468529	-21
2468715	52
2468900	84
2469080	92
2469269	90
2469456	103
2469649	124
2469868	114
2470095	114
2470303	150
2470524	177
2470746	172
2470954	144
2471153	101
2471354	63
2471562	112
2471764	115
2471948	71
2472139	95
2472335	13
2472532	19
2472731	-6
2472940	6
2473156	-23
2473373	-13
2473595	-56
2473813	-58
2474017	-74
2474222	-65
2474415	-67
2474600	-65
2474785	-46
2475198	-21
2475426	5
2475650	111
2475857	130
2476052	172
2476246	128
2476436	104
2476625	96
2476812	89
2476994	96
2477177	82
2477370	59
2477578	17
2477782	-2
2477994	-2
2478216	23
2478439	23
2478654	12
2478878	-50
2479094	-71
2479303	-68
2479509	-63
2479724	-138
2479943	-96
2480159	-42
2480390	-9
2480627	17
2480846	71
2481059	104
2481288	79
2481517	70
2481736	135
2481966	79
2482193	53
2482409	84
2482634	97
2482873	126
2483118	158
2483350	148
2483572	106
2483811	26
2484060	34
2484292	22
2484524	2
2484776	-29
2485029	-50
2485277	-35
2485520	-34
2485777	-16
2486025	9
2486271	24
2486502	28
2486756	42
2487018	42
2487269	82
2487490	108
2487732	93
2487983	96
2488240	112
2488469	132
2488715	130
2488979	88
2489230	44
2489460	41
2489706	31
2489961	13
2490209	-13
2490424	-28
2490652	-163
2490864	-71
2491063	-9
2491267	-10
2491476	-25
2491690	-10
2491888	41
2492095	48
2492296	55
2492487	106
2492679	136
2492873	147
2493067	157
2493248	180
2493433	169
2493618	157
2493799	132
2493990	104
2494198	143
2494397	180
2494593	162
2494789	111
2494994	115
2495233	174
2495448	103
2495644	78
2495841	53
2496042	8
2496247	-18
2496468	-54
2496688	-2
2496902	33
2497109	37
2497306	70
2497502	53
2497706	158
2497917	190
2498109	159
2498320	154
2498547	122
2498795	95
2499052	136
2499297	129
2499530	96
2499749	39
2499949	48
2500161	126
2500382	71
2500623	19
2500870	16
2501091	-13
2501317	-28
2501526	-5
2501729	11
2501932	2
2502130	6
2502318	16
2502504	-6
2502692	-20
2502882	28
2503065	49
2503249	55
2503441	118
2503638	141
2503833	118
2504023	133
2504218	93
2504415	71
2504617	73
2504821	70
2505029	85
2505224	81
2505423	100
2505630	89
2505843	57
2506072	28
2506302	-10
2506526	-17
2506764	-96
2507005	-158
2507229	-188
2507434	-71
2507644	5
2507868	12
2508108	44
2508343	22
2508555	99
2508777	93
2509011	70
2509250	78
2509468	84
2509677	126
2509911	106
2510158	112
2510379	84
2510596	73
2510832	38
2511077	26
2511300	1
2511522	-40
2511762	-108
2511996	-122
2512222	-54
2512445	-42
2512682	-27
2512923	46
2513159	44
2513370	5
2513600	1
2513822	31
2514050	73
2514266	119
2514505	141
2514754	86
2514991	93
2515206	95
2515425	97
2515662	67
2515910	63
2516134	59
2516374	-9
2516622	-9
2516874	-12
2517101	34
2517332	-38
2517572	-56
2517817	-28
2518042	42
2518275	38
2518517	81
2518751	106
2518964	115
2519186	67
2519435	73
2519682	53
2519910	38
2520132	20
2520364	35
2520589	59
2520808	73
2521051	81
2521288	48
2521512	19
2521756	-45
2522005	-69
2522233	-50
2522452	-35
2522677	-17
2522896	13
2523114	27
2523317	6
2523524	-5
2523733	45
2523948	95
2524150	176
2524349	221
2524552	202
2524750	141
2524937	144
2525127	121
2525325	79
2525521	62
2525717	52
2525899	26
2526083	12
2526270	-45
2526459	-63
2526656	-51
2526855	-63
2527054	-34
2527267	8
2527466	2
2527659	-31
2527873	-34
2528103	-16
2528340	77
2528564	130
2528802	136
2529034	129
2529257	143
2529482	150
2529728	177
2529977	179
2530205	183
2530424	170
2530647	124
2530865	-23
2531062	52
2531251	78
2531440	106
2531637	144
2531840	121
2532038	90
2532224	31
2532413	13
2532598	82
2532782	95
2532969	119
2533148	122
2533329	82
2533517	101
2533713	136
2533903	124
2534093	118
2534273	88
2534468	44
2534683	52
2534913	33
2535140	5
2535363	45
2535586	74
2535805	62
2536003	57
2536212	71
2536430	53
2536677	15
2536911	12
2537116	-28
2537343	-49
2537588	-47
2537834	-23
2538049	1
2538280	0
2538518	26
2538767	62
2538983	60
2539215	73
2539446	89
2539681	162
2539888	170
2540114	84
2540337	15
2540556	64
2540759	55
2540963	48
2541161	74
2541362	96
2541578	60
2541777	-6
2541969	-80
2542167	-74
2542359	-40
2542555	-9
2542739	20
2542924	37
2543112	78
2543293	92
2543475	119
2543660	81
2543853	38
2544041	44
2544221	34
2544411	68
2544606	86
2544795	115
2544977	115
2545170	126
2545373	168
2545580	139
2545792	82
2545995	77
2546201	112
2546431	74
2546675	34
2546913	26
2547123	15
2547334	-38
2547553	-35
2547777	-18
2548002	37
2548204	63
2548428	15
2548670	26
2548908	49
2549125	103
2549341	150
2549577	141
2549810	144
2550032	122
2550236	121
2550448	112
2550677	67
2550911	73
2551130	49
2551360	1
2551577	-50
2551785	-43
2551981	-87
2552169	-76
2552369	-3
2552563	71
2552767	82
2552988	99
2553184	93
2553388	81
2553587	59
2553775	73
2553972	82
2554168	97
2554368	99
2554562	136
2554748	165
2554949	130
2555147	86
2555343	96
2555551	99
2555764	86
2555957	70
2556154	73
2556362	45
2556571	-5
2556768	-68
2556971	-112
2557175	-113
2557373	38
2557576	9
2557787	-12
2557997	-115
2558197	-43
2558387	70
2558568	99
2558746	86
2558921	114
2559094	143
2559262	188
2559431	194
2559601	219
2559780	217
2559956	172
2560134	176
2560342	170
2560580	176
2560817	194
2561042	152
2561244	135
2561458	64
2561664	-45
2561858	-86
2562043	-74
2562230	-36
2562421	9
2562618	-9
2562831	-21
2563058	24
2563314	37
2563562	49
2563788	70
2564038	70
2564287	115
2564520	169
2564731	169
2564939	198
2565158	195
2565372	139
2565588	92
2565804	77
2566071	56
2566318	-36
2566522	-9
2566735	-178
2566934	-181
2567123	-10
2567308	42
2567491	28
2567671	31
2567857	-3
2568040	20
2568224	56
2568415	71
2568602	129
2568779	177
2568961	261
2569136	790
2569320	826
2569510	731
2569703	436
2569891	378
2570071	285
2570254	282
2570440	217
2570618	78
2570799	70
2570985	-21
2571163	-125
2571340	-210
2571528	-279
2571722	-231
2571933	-175
2572158	-131
2572384	-102
2572616	-78
2572853	-102
2573061	39
2573269	97
2573469	60
2573679	93
2573892	174
2574095	174
2574299	-93
2574490	-65
2574672	45
2574868	100
2575060	74
2575263	122
2575677	129
2575878	74
2576082	-18
2576285	-113
2576472	-244
2576662	-323
2576846	-257
2577049	219
2577261	1088
2577468	545
2577673	263
2578063	38
2578238	-714
2578421	5668
2578589	15777
2578760	5119
2578927	-9751
2579093	-2337
2579256	-1752
2579419	1016
2579579	-301
2579737	-446
2579895	228
2580203	-1786
2580352	-1830
2580501	-1217
2580650	-867
2580802	-738
2580959	-597
2581129	-298
2581328	-158
2581542	5
2581777	110
2582015	186
2582243	158
2582452	165
2582656	212
2582858	166
2583077	181
2583299	165
2583562	157
2583810	179
2584039	243
2584254	214
2584461	74
2584653	117
2584838	79
2585025	104
2585241	122
2585525	53
2585740	12
2585947	59
2586159	-10
2586390	-28
2586620	-46
2586825	31
2587023	62
2587226	38
2587442	8
2587662	46
2587876	177
2588104	214
2588342	177
2588566	128
2589222	177
2589420	163
2589641	140
2589877	170
2590088	86
2590292	46
2590506	-24
2590747	-60
2590989	-69
2591216	-36
2591456	-27
2591696	31
2591920	38
2592143	44
2592373	77
2592618	129
2592867	143
2593116	97
2593366	75
2593593	57
2593828	136
2594076	130
2594330	66
2594565	6
2595085	-31
2595325	-21
2595542	0
2595792	-27
2596024	23
2596230	71
2596640	165
2596839	180
2597745	294
2597948	249
2598605	128
2598821	135
2599299	75
2599520	86
2599771	17
2600276	-160
2600497	-184
2600742	-148
2601217	-25
2601437	63
2602198	95
2602425	126
2603174	73
2603391	27
2604115	148
2604894	-28
2605119	-17
2605847	-74
2606064	-38
2606294	37
2606775	128
2606993	148
2607766	88
2607985	96
2608698	20
2608914	-6
2609392	0
2609603	-21
2610068	-108
2610307	-94
2610526	-63
2610763	-45
2611006	33
2611241	53
2611456	22
2611686	-14
2611923	35
2612159	117
2612371	151
2612615	199
2612868	228
2613130	114
2613357	78
2613600	82
2613833	59
2614064	-7
2614281	-23
2614520	-71
2614773	-151
2615016	-111
2615239	-89
2615487	-45
2615735	-32
2615957	-5
2616194	28
2616430	82
2616667	103
2616886	163
2617122	192
2617375	162
2617641	148
2617876	133
2618104	144
2618342	180
2618577	154
2618789	128
2619019	103
2619268	1
2619519	-105
2619739	-98
2619977	-86
2620211	-49
2620435	13
2620646	89
2620883	63
2621123	96
2621342	147
2621582	155
2621818	159
2622044	159
2622267	199
2622499	224
2622731	155
2622953	97
2623171	106
2623396	110
2623635	99
2623866	22
2624088	-17
2624331	-32
2624563	-96
2624789	-104
2625029	-38
2625268	-53
2625493	-27
2625708	13
2625941	67
2626177	77
2626412	132
2626625	112
2626848	147
2627078	165
2627312	152
2627531	108
2627754	161
2627995	143
2628231	75
2628453	-9
2628681	0
2628909	-35
2629129	-101
2629335	-115
2629555	-111
2629778	-90
2630006	-72
2630221	15
2630462	42
2630698	50
2630917	22
2631136	53
2631364	68
2631601	112
2631819	135
2632073	161
2632326	115
2632568	77
2632787	79
2633021	108
2633245	66
2633462	6
2633683	-47
2633908	-133
2634126	-20
2634342	-2
2634576	-10
2634817	22
2635039	126
2635276	110
2635514	93
2635756	84
2635973	110
2636202	146
2636434	181
2636666	190
2636883	254
2637106	285
2637338	209
2637578	101
2637802	17
2638024	-36
2638261	-93
2638495	-112
2638714	-64
2638952	-39
2639192	-24
2639428	49
2639645	125
2639879	103
2640116	118
2640359	79
2640577	96
2640814	130
2641060	152
2641300	115
2641519	144
2641757	158
2641991	147
2642239	104
2642478	53
2642693	31
2642930	-65
2643184	-126
2643423	-113
2643633	-53
2643858	-31
2644091	-47
2644336	-34
2644556	38
2644799	48
2645014	108
2645238	144
2645463	126
2645664	151
2645855	148
2646054	237
2646254	296
2646455	181
2646644	112
2646837	162
2647023	1829
2647150	2203
2647199	1123
2647372	-893
2647545	-953
2647713	-816
2647880	396
2648042	-137
2648152	-64
2648189	308
2648201	197
2648357	75
2648511	-75
2648664	-3
2648813	79
2648959	-663
2649105	-506
2649250	-326
2649394	-288
2649538	-202
2649682	-218
2649830	-122
2649978	-29
2650129	104
2650285	-47
2650446	383
2650621	363
2650815	270
2651015	372
2651251	8
2651512	30
2651752	2
2652009	-112
2652281	-93
2652518	55
2652758	-34
2653004	48
2653221	318
2653450	274
2653701	234
2653906	378
2654113	239
2654321	239
2654520	427
2654714	431
2654939	304
2655189	246
2655420	289
2655642	177
2655875	103
2656114	159
2656338	68
2656575	17
2656811	-32
2657027	75
2657246	59
2657478	49
2657742	115
2657964	-31
2658205	136
2658456	165
2658707	260
2658923	159
2659155	141
2659385	124
2659585	132
2659780	129
2659984	427
2660192	394
2660406	374
2660623	275
2660838	95
2661047	-58
2661236	-71
2661428	-291
2661615	-455
2661802	-195
2661984	-86
2662169	-79
2662370	170
2662600	338
2662840	436
2663064	602
2663299	533
2663564	406
2663833	310
2664059	201
2664296	161
2664530	147
2664734	74
2664990	85
2665264	6
2665539	-90
2665785	-134
2666016	-331
2666218	137
2666417	-43
2666620	-148
2666861	-54
2667125	-18
2667389	179
2667636	132
2667884	130
2668140	402
2668366	329
2668612	192
2668866	75
2669112	92
2669340	1
2669630	75
2669905	37
2670137	-45
2670365	-229
2670594	-297
2670838	-38
2671067	-141
2671329	-111
2671598	-72
2671852	-40
2672080	0
2672319	22
2672582	12
2672868	107
2673105	93
2673347	39
2673618	60
2673878	117
2674139	111
2674412	56
2674693	12
2674942	-100
2675205	-304
2675486	-319
2675738	-101
2675976	-169
2676240	-105
2676515	46
2676737	170
2676983	112
2677248	93
2677523	192
2677769	199
2678027	136
2678276	133
2678514	135
2678748	46
2678996	78
2679252	117
2679480	-28
2679736	-258
2679988	-312
2680207	-280
2680453	-206
2680714	-164
2680979	-3
2681215	0
2681447	-47
2681684	-31
2681891	73
2682092	39
2682315	-17
2682571	238
2682806	303
2683071	197
2683331	60
2683346	-352
2683580	107
2683822	-9
2684068	-94
2684324	-195
2684578	-109
2684843	-140
2685115	16
2685375	57
2685610	55
2685870	50
2686149	107
2686419	243
2686681	257
2686964	154
2687250	220
2687512	214
2687764	59
2688026	2
2688289	27
2688508	-101
2688730	-182
2688962	-182
2689176	-82
2689428	-17
2689691	-98
2689947	-36
2690168	-13
2690399	5
2690633	62
2690858	155
2691067	205
2691296	220
2691552	230
2691826	176
2692088	245
2692338	148
2692602	103
2692873	22
2693129	-5
2693344	-119
2693576	-239
2693823	-242
2694129	-200
2694378	-45
2694623	-12
2694884	-9
2695166	46
2695431	129
2695663	95
2695903	151
2696148	660
2696355	841
2696582	768
2696855	574
2697149	322
2697421	170
2697682	161
2697920	-39
2698187	-330
2698450	-386
2698730	-191
2698994	-120
2699275	-104
2699551	55
2699796	73
2700062	59
2700342	169
2700591	128
2700893	74
2701172	147
2701412	176
2701675	84
2701953	73
2702209	133
2702457	49
2702724	-87
2702971	-293
2703190	-328
2703400	-413
2703599	-290
2703836	-123
2704054	1
2704256	-16
2704467	-71
2704671	-40
2704873	-78
2705069	74
2705261	41
2705462	68
2705623	154
2705886	274
2706122	381
2706342	223
2706587	150
2706843	77
2707091	53
2707328	67
2707554	-31
2707809	-287
2708085	-298
2708347	-101
2708600	-20
2708880	42
2709158	74
2709410	209
2709661	100
2709927	115
2710191	348
2710416	383
2710661	381
2710946	283
2711186	230
2711418	107
2711678	-6
2711953	-24
2712208	-79
2712460	-217
2712723	-338
2712983	-255
2713207	-177
2713448	-115
2713718	-5
2713961	143
2714196	104
2714447	118
2714700	126
2714953	311
2715194	267
2715464	170
2715733	195
2715975	198
2716213	59
2716471	-27
2716741	63
2716981	-38
2717250	-122
2717518	-153
2717774	-14
2718002	-65
2718252	-68
2718481	-82
2718689	15
2718898	27
2719117	103
2719326	235
2719532	286
2719746	241
2719961	146
2720169	202
2720362	163
2720551	114
2720732	104
2720912	89
2721115	73
2721340	35
2721585	12
2721823	-72
2722078	-209
2722340	-322
2722595	-417
2722824	-222
2723033	-153
2723256	-129
2723467	-137
2723669	792
2723893	27
2724147	75
2724399	180
2724623	195
2724868	165
2725109	135
2725338	279
2725560	198
2725797	159
2726022	106
2726259	220
2726490	97
2726741	-51
2726982	-32
2727209	-65
2727479	19
2727769	108
2728037	173
2728275	146
2728532	126
2728796	55
2729012	180
2729242	118
2729533	-10
2729794	49
2730028	35
2730279	26
2730540	71
2730797	42
2731036	-67
2731313	-169
2731609	-209
2731885	-147
2732137	-109
2732406	-209
2732671	-141
2732920	66
2733170	8
2733404	301
2733618	403
2733835	491
2734047	467
2734282	374
2734549	124
2734778	75
2735011	115
2735258	-50
2735488	-109
2735690	-138
2735881	-262
2736075	-266
2736276	-261
2736464	-131
2736671	-72
2736899	55
2737164	162
2737406	265
2737647	129
2737908	179
2738161	173
2738388	276
2738606	190
2738855	168
2739136	165
2739411	205
2739670	77
2739943	9
2740214	-71
2740468	-20
2740708	-145
2740998	-119
2741266	-167
2741499	-85
2741770	-100
2742052	19
2742280	177
2742498	141
2742717	161
2742945	243
2743159	296
2743422	172
2743709	117
2743979	97
2744225	37
2744480	-35
2744750	-80
2745016	-160
2745282	-288
2745562	-246
2745842	-123
2746080	22
2746310	1
2746536	-69
2746765	-57
2746982	81
2747244	101
2747515	96
2747767	214
2748013	151
2748269	118
2748527	92
2748771	223
2748995	130
2749256	75
2749556	-85
2749835	-93
2750076	-123
2750345	-122
2750627	23
2750890	144
2751144	48
2751415	75
2751691	205
2751940	194
2752223	192
2752508	212
2752767	155
2753050	34
2753336	-122
2753577	-16
2753799	-96
2754023	-140
2754244	-63
2754450	-32
2754659	-71
2754871	-107
2755080	-58
2755277	-100
2755478	-40
2755682	0
2755876	245
2756071	97
2756269	119
2756476	177
2756690	220
2756905	132
2757128	90
2757357	125
2757586	248
2757813	117
2758053	42
2758301	-13
2758535	110
2758743	-82
2758953	-193
2759159	-188
2759353	-141
2759569	-57
2759789	75
2760004	24
2760224	38
2760444	35
2760657	62
2760870	181
2761075	166
2761293	219
2761527	225
2761760	198
2761975	234
2762192	165
2762406	137
2762621	168
2762829	224
2763040	79
2763250	-60
2763484	-184
2763731	-301
2763964	-193
2764181	-119
2764411	-119
2764653	-64
2764883	141
2765098	132
2765329	137
2765562	216
2765785	319
2766007	195
2766250	136
2766512	195
2766752	246
2767005	99
2767269	-3
2767511	97
2767725	2
2767971	-136
2768234	-155
2768505	-76
2768758	33
2769014	-18
2769282	-12
2769543	6
2769793	152
2770024	165
2770288	20
2770563	31
2770819	133
2771056	78
2771323	75
2771598	27
2771865	74
2772093	41
2772337	-49
2772576	-89
2772811	-145
2773058	-116
2773294	-10
2773535	-50
2773793	-43
2774037	-40
2774282	132
2774501	165
2774735	110
2774975	86
2775209	192
2775424	234
2775645	148
2775871	111
2776084	190
2776301	115
2776528	99
2776762	42
2776987	56
2777192	-83
2777404	-231
2777634	-249
2777884	-242
2778133	-185
2778355	-156
2778601	-96
2778851	-12
2779099	-9
2779345	114
2779550	487
2779745	358
2779950	265
2780280	177
2780578	114
2780863	75
2781134	53
2781393	53
2781619	137
2781825	85
2782041	35
2782347	-97
2782569	-164
2782774	-151
2783027	-90
2783271	-69
2783484	-76
2783702	38
2783930	221
2784162	286
2784388	327
2784632	140
2784872	146
2785119	115
2785387	59
2785646	174
2785897	90
2786160	85
2786426	146
2786677	-36
2786941	-147
2787190	-101
2787442	-191
2787731	-129
2788010	-49
2788259	50
2788518	-3
2788802	1
2789079	151
2789319	220
2789604	184
2789887	135
2790151	259
2790420	103
2790704	-20
2790977	73
2791200	154
2791437	-27
2791687	-147
2791938	-175
2792220	-287
2792512	-162
2792796	35
2793040	20
2793297	28
2793562	60
2793831	141
2794086	107
2794386	115
2794672	148
2794936	267
2795195	151
2795475	93
2795741	125
2795985	23
2796264	-49
2796541	-61
2796787	-74
2797054	-100
2797322	-72
2797577	45
2797810	-64
2798093	-51
2798376	33
2798624	151
2798888	90
2799158	28
2799420	197
2799685	77
2799961	56
2800241	148
2800487	90
2800761	-2
2801050	-71
2801320	-63
2801555	-203
2801820	-283
2802118	-232
2802398	4
2802656	12
2802928	55
2803208	111
2803455	259
2803698	179
2803944	181
2804189	301
2804412	228
2804671	121
2804960	73
2805225	90
2805445	45
2805672	-42
2805908	-97
2806148	-97
2806371	-163
2806636	-98
2806916	-49
2807177	75
2807442	37
2807705	63
2807959	126
2808190	92
2808443	82
2808713	195
2808956	227
2809226	114
2809494	31
2809746	107
2809994	13
2810258	-24
2810506	-20
2810770	-145
2811036	-215
2811299	-54
2811536	-5
2811795	9
2812061	37
2812312	141
2812556	57
2812804	89
2813063	140
2813310	292
2813548	197
2813815	146
2814091	129
2814357	135
2814583	20
2814828	-130
2815083	-144
2815333	-86
2815571	-242
2815853	-229
2816140	-45
2816378	38
2816632	99
2816901	88
2817159	147
2817401	199
2817657	139
2817901	274
2818130	97
2818384	62
2818618	202
2818833	106
2819074	31
2819352	48
2819617	19
2819839	-65
2820058	-72
2820268	135
2820469	157
2820682	108
2820902	111
2821137	104
2821354	86
2821550	20
2821743	-49
2821932	26
2822123	107
2822319	144
2822511	217
2822697	162
2822888	137
2823086	136
2823289	81
2823485	130
2823689	41
2823897	8
2824107	19
2824306	17
2824506	-120
2824690	-151
2824874	-96
2825055	276
2825243	220
2825427	184
2825608	270
2825790	449
2825969	555
2826149	438
2826331	468
2826511	333
2826689	381
2826865	89
2827042	-12
2827217	192
2827390	795
2827563	491
2827740	174
2827921	501
2828109	960
2828289	1292
2828477	1646
2828665	1209
2828860	975
2829054	786
2829245	959
2829425	978
2829604	-38
2829783	-943
2829962	-666
2830138	-83
2830317	162
2830498	365
2830686	544
2830886	624
2831081	699
2831272	585
2831481	490
2831687	341
2831874	192
2832057	100
2832255	26
2832461	9
2832676	-115
2832899	-295
2833128	-287
2833366	-98
2833575	-133
2833803	-338
2834045	-311
2834284	-187
2834495	-127
2834713	-215
2834938	-209
2835173	-97
2835383	-207
2835620	-253
2835861	-228
2836068	-7
2836272	1077
2836466	928
2836661	518
2836857	-222
2837044	170
2837233	208
2837422	287
2837607	264
2837790	254
2837972	79
2838149	-39
2838327	-261
2838504	-388
2838688	-353
2838882	-210
2839082	8
2839271	111
2839468	-23
2839669	-87
2839880	62
2840095	-283
2840297	-78
2840502	5
2840707	48
2840936	114
2841160	367
2841395	4
2841654	4
2841919	38
2842152	112
2842408	-5
2842674	-74
2842931	70
2843175	-206
2843440	-200
2843679	143
2843918	-67
2844200	-67
2844458	92
2844730	-12
2845009	73
2845257	188
2845520	48
2845807	11
2846071	344
2846352	-42
2846580	186
2846802	-28
2847032	-87
2847346	-171
2847632	-333
2847938	-258
2848219	-167
2848500	-174
2848792	-218
2849036	-140
2849244	-40
2849469	-96
2849777	-53
2850040	89
2850268	60
2850506	33
2850759	-53
2851012	53
2851237	31
2851500	-46
2851756	-61
2851966	-31
2852199	179
2852485	286
2852765	299
2853022	143
2853274	104
2853522	-53
2853754	-43
2853992	-123
2854267	-164
2854509	-5
2854766	-17
2855053	5
2855328	-5
2855576	90
2855828	-2
2856075	-6
2856308	88
2856542	-98
2856804	-105
2857023	-3
2857245	-87
2857478	-71
2857698	38
2857907	-57
2858132	-96
2858354	8
2858568	-40
2858806	-58
2859059	-3
2859303	158
2859518	154
2859755	60
2860006	24
2860257	143
2860480	101
2860731	78
2860981	66
2861224	158
2861471	-12
2861742	-131
2862022	-239
2862275	-306
2862539	-255
2862796	-87
2863021	-10
2863269	-107
2863527	-111
2863777	71
2864019	31
2864273	125
2864530	220
2864759	203
2865013	107
2865267	-86
2865493	15
2865753	-3
2866036	-3
2866296	41
2866523	-45
2866776	-90
2867032	-115
2867280	-64
2867517	-131
2867773	-148
2868030	5
2868283	119
2868532	39
2868798	70
2869059	117
2869320	249
2869551	183
2869797	125
2870067	73
2870305	166
2870555	24
2870818	-16
2871064	66
2871304	-182
2871577	-200
2871846	-232
2872085	-196
2872339	-221
2872604	-191
2872863	53
2873109	-51
2873373	60
2873635	239
2873860	230
2874070	104
2874291	135
2874512	130
2874739	197
2874983	112
2875229	115
2875459	59
2875670	59
2875899	-36
2876139	-85
2876366	-9
2876581	-101
2876849	-115
2877135	-50
2877404	77
2877646	52
2877905	-2
2878168	12
2878409	250
2878646	81
2878919	82
2879218	115
2879477	279
2879726	140
2880263	133
2880476	103
2880679	-40
2880870	-90
2881075	-173
2881292	-202
2881493	-127
2881687	-131
2881886	-116
2882080	-126
2882273	-109
2882458	-40
2882643	-78
2882829	-14
2883022	86
2883222	90
2883421	144
2883614	169
2883820	75
2884041	106
2884273	110
2884520	101
2884740	143
2884960	101
2885181	103
2885406	106
2885653	-182
2885924	-331
2886164	-94
2886399	6
2886656	37
2886920	135
2887152	66
2887412	11
2887715	170
2887985	279
2888239	157
2888492	121
2888780	161
2889029	144
2889294	-21
2889535	30
2889753	-43
2890006	-167
2890305	-213
2890563	-166
2890837	-89
2891110	33
2891375	130
2891611	135
2891849	157
2892071	161
2892286	217
2892489	276
2892708	186
2893012	84
2893290	52
2893566	15
2893828	77
2894074	-13
2894304	-108
2894543	-192
2894787	-136
2895045	-116
2895339	-65
2895612	9
2895845	151
2896072	60
2896316	117
2896578	170
2896817	110
2897110	88
2897395	135
2897637	191
2897873	41
2898124	1
2898378	1
2898604	41
2898863	-162
2899145	-269
2899411	-174
2899648	-90
2899901	6
2900161	33
2900406	4
2900625	45
2900880	49
2901143	161
2901361	334
2901581	86
2901808	89
2902036	363
2902239	372
2902461	243
2902683	143
2902889	195
2903090	38
2903299	-39
2903500	-100
2903693	-141
2903930	-144
2904182	-97
2904416	-60
2904628	-87
2904853	4
2905100	70
2905352	92
2905586	241
2905815	147
2906045	130
2906277	165
2906510	158
2906724	172
2906962	52
2907230	-14
2907490	-14
2907727	27
2907970	-166
2908235	-240
2908487	-169
2908723	-116
2908994	-50
2909274	17
2909532	144
2909758	157
2910031	107
2910310	152
2910558	241
2910811	147
2911087	103
2911342	104
2911563	62
2911817	13
2912076	-28
2912322	16
2912549	-109
2912802	-200
2913084	-269
2913343	-119
2913588	-102
2913841	-123
2914093	-5
2914322	57
2914579	50
2914841	95
2915098	191
2915338	137
2915620	115
2915891	124
2916124	198
2916348	73
2916582	26
2916842	34
2917081	44
2917316	-72
2917562	-145
2917810	-174
2918039	-47
2918276	-54
2918531	9
2918793	128
2919029	209
2919276	112
2919520	97
2919728	257
2919941	165
2920192	158
2920465	172
2920701	97
2920955	12
2921216	-45
2921479	5
2921723	-64
2921999	-162
2922271	-308
2922511	-260
2922777	-184
2923070	-61
2923341	-34
2923571	35
2923840	38
2924127	90
2924392	152
2924637	150
2924900	90
2932362	169
2933267	212
2933470	278
2934601	121
2934780	413
2934966	2171
2934984	7653
2935017	12588
2935259	3297
2935292	3258
2937057	-294
2939513	-2408
2939738	-1993
2940523	-696
2940691	1083
2940856	467
2941027	1151
2941205	679
2941394	1632
2941594	1725
2941805	1550
2942020	1909
2942239	1373
2942459	934
2942672	737
2942886	617
2943102	216
2943319	1171
2943565	1208
2943822	1224
2944085	1026
2944347	1003
2944602	972
2944856	180
2945102	-447
2945310	-655
2945497	-644
2945679	-641
2945852	-745
2946028	-855
2946222	-735
2946423	-517
2946630	-568
2946854	-396
2947092	-316
2947335	-279
2947573	-211
2947806	-253
2948029	-144
2948235	66
2948455	81
2948676	157
2948899	402
2949143	1114
2949379	1431
2949631	1858
2949890	361
2950120	30
2950324	-123
2950518	-191
2950706	-295
2950893	-411
2951083	-231
2951292	75
2951501	381
2951705	-424
2951899	-437
2952111	-366
2952325	-301
2952515	-330
2952723	-269
2952934	-214
2953130	-233
2953343	-200
2953603	-185
2953838	-79
2954072	-102
2954328	-60
2954547	-83
2954778	-35
2955002	-130
2955229	-156
2955463	-137
2955716	-39
2955995	-153
2956264	-126
2956519	-224
2956762	35
2956986	88
2957183	33
2957382	174
2957600	372
2957851	6
2958140	23
2958416	117
2958679	19
2958909	-43
2959110	-14
2959316	-28
2959514	33
2959742	77
2960013	37
2960302	-16
2960591	22
2960870	-58
2961139	-50
2961404	-61
2961653	-61
2961863	-78
2962053	-46
2962238	-127
2962425	-762
2962627	-330
2962831	-226
2963046	-60
2963343	-35
2963612	-49
2963880	-20
2964147	110
2964420	41
2964695	75
2964964	64
2965232	49
2965488	92
2965712	73
2965912	24
2966101	37
2966285	-35
2966470	16
2966679	-23
2966984	35
2967251	81
2967498	39
2967755	101
2967981	93
2968228	41
2968498	95
2968744	86
2969012	117
2969265	77
2969519	62
2969811	12
2970092	-3
2970331	-31
2970553	-86
2970796	-80
2971077	-47
2971313	4
2971599	-32
2971875	-2
2972123	146
2972361	117
2972625	85
2972892	135
2973124	137
2973404	59
2973698	49
2973958	75
2974207	89
2974491	214
2974766	1
2975010	-63
2975236	-93
2975499	-38
2975793	-152
2976044	-89
2976269	-35
2976533	165
2976780	57
2977002	52
2977234	22
2977498	67
2977737	79
2977998	86
2978272	48
2978538	17
2978755	22
2978972	20
2979202	23
2979444	2
2979663	-64
2979870	-94
2980106	-98
2980340	-169
2980538	-127
2980744	-13
2980960	-97
2981193	-67
2981406	-79
2981639	-3
2981890	89
2982125	107
2982363	114
2982604	144
2982804	139
2983004	107
2983209	274
2983420	104
2983644	82
2983916	70
2984177	45
2984437	30
2984681	-96
2984883	-108
2985088	-209
2985296	-144
2985532	-87
2985799	-65
2986047	-27
2986293	-38
2986525	26
2986745	86
2986985	53
2987249	52
2987502	112
2987716	39
2987972	19
2988249	16
2988479	11
2988717	23
2988994	34
2989227	33
2989448	439
2989679	665
2989890	461
2990090	299
2990300	154
2990513	163
2990721	428
2990943	27
2991183	-138
2991413	-79
2991647	55
2991901	176
2992153	260
2992407	234
2992664	106
2992921	1
2993166	-29
2993389	67
2993592	-111
2993787	-119
2993984	-85
2994200	-63
2994461	-65
2994727	-45
2994993	30
2995275	57
2995536	163
2995764	56
2995967	59
2996170	64
2996387	112
2996601	89
2996808	88
2997047	172
2997303	139
2997550	110
2997780	35
2997993	34
2998232	-57
2998466	-115
2998715	-87
2998967	-89
2999273	-69
2999548	-51
2999812	-5
3000060	31
3000339	27
3000612	93
3000864	100
3001144	92
3001431	60
3001698	77
3001982	71
3002275	23
3002546	23
3002827	-74
3003099	-49
3003358	-60
3003635	-46
3003928	-7
3004216	1
3004467	9
3004744	-9
3005019	-7
3005272	46
3005545	46
3005819	57
3006081	15
3006352	-39
3006628	-23
3006884	-16
3007132	68
3007380	-2
3007642	-20
3007901	-40
3008161	19
3008430	177
3008708	179
3008989	214
3009261	289
3009522	268
3009783	71
3010032	-32
3010245	-122
3010445	-91
3010637	-67
3010827	-36
3011027	28
3011253	78
3011544	12
3011802	-5
3012061	-29
3012328	-29
3012605	39
3012879	-125
3013129	-82
3013346	-38
3013542	42
3013741	45
3013950	23
3014158	66
3014401	24
3014681	49
3015250	15
3015492	89
3015764	64
3016040	-2
3016307	2
3016581	4
3016830	33
3017095	28
3017368	45
3017631	41
3017890	-6
3018175	55
3018448	62
3018732	67
3019006	82
3019242	108
3019498	46
3019775	34
3020046	27
3020333	8
3020596	6
3020875	16
3021141	26
3021410	-28
3021696	-40
3021972	-39
3022248	-20
3022517	-29
3022798	-2
3023050	66
3023305	53
3023567	77
3023820	107
3024080	56
3024335	64
3024571	50
3024825	53
3025076	31
3025352	-10
3025618	-10
3025862	-17
3026130	-16
3026386	-42
3026651	-24
3026915	46
3027173	24
3027438	34
3027694	86
3027955	64
3028230	20
3028479	99
3028734	82
3028998	128
3029266	108
3029537	78
3029806	50
3030076	24
3030346	1
3030605	13
3030888	-3
3031150	5
3031418	-23
3031683	-5
3031968	-12
3032227	34
3032473	19
3032742	53
3033003	108
3033277	60
3033539	62
3033808	53
3034089	66
3034369	60
3034643	67
3034917	24
3035164	22
3035431	55
3035691	-32
3035942	-49
3036226	-65
3036510	-6
3036787	11
3037062	13
3037318	34
3037583	13
3037827	114
3038086	139
3038357	130
3038612	115
3038879	73
3039154	84
3039420	81
3039700	24
3039970	6
3040246	-13
3040528	-28
3040790	-45
3041059	-28
3041325	-23
3041579	-2
3041846	41
3042107	104
3042387	118
3042667	133
3042953	92
3043234	141
3043520	46
3043808	9
3044087	9
3044356	6
3044635	-45
3044899	-60
3045177	-98
3045444	-58
3045728	2
3046003	23
3046300	-35
3046580	60
3046834	162
3047115	155
3047382	115
3047669	73
3047968	70
3048251	53
3048552	45
3048844	5
3049108	19
3049393	-28
3049683	-46
3049964	-23
3050264	-24
3050555	50
3050836	5
3051123	6
3051407	84
3051683	84
3051966	85
3052238	108
3052523	108
3052801	92
3053088	104
3053370	20
3053645	-24
3053926	-31
3054191	-54
3054461	-51
3054743	-29
3055009	38
3055284	-9
3055561	-3
3055807	78
3056071	85
3056361	75
3056636	85
3056925	55
3057207	71
3057473	81
3057756	68
3058044	39
3058321	2
3058596	-25
3058874	-71
3059154	-111
3059408	-57
3059675	-20
3059942	45
3067637	4427
3118976	-8782
3119205	11410
3119228	30497
3119274	-32768
3119975	8386
3119987	10020
3120866	22256
3120877	24735
3150129	-53
3150391	-7
