27974	27974
23690	23690
19592	19592
16214	16214
13780	13780
11508	11508
9794	9794
8464	8464
7283	7283
6279	6279
5558	5558
4865	4865
4345	4345
3822	3822
3355	3355
3042	3042
2827	2827
2547	2547
2317	2317
2161	2161
2000	2000
1853	1853
1785	1785
1657	1657
1536	1536
1504	1504
1377	1377
1278	1278
1244	1244
1175	1175
1092	1092
1106	1106
1036	1036
1007	1007
985	985
923	923
858	858
883	883
840	840
764	764
841	841
763	763
750	750
755	755
693	693
676	676
676	676
642	642
640	640
606	606
559	559
511	511
559	559
516	516
490	490
478	478
487	487
475	475
476	476
465	465
432	432
456	456
438	438
446	446
447	447
420	420
431	431
412	412
376	376
383	383
323	323
361	361
366	366
319	319
305	305
321	321
297	297
333	333
296	296
256	256
285	285
242	242
283	283
274	274
254	254
294	294
271	271
303	303
274	274
239	239
256	256
239	239
265	265
260	260
203	203
242	242
235	235
259	259
217	217
166	166
151	151
155	155
154	154
216	216
188	188
180	180
202	202
197	197
217	217
209	209
158	158
199	199
187	187
136	136
158	158
128	128
108	108
130	130
125	125
143	143
147	147
103	103
128	128
133	133
82	82
79	79
110	110
107	107
117	117
99	99
133	133
114	114
89	89
81	81
158	158
89	89
121	121
101	101
28	28
66	66
126	126
125	125
128	128
118	118
118	118
125	125
126	126
154	154
121	121
82	82
97	97
99	99
73	73
64	64
70	70
81	81
74	74
115	115
89	89
78	78
95	95
107	107
100	100
133	133
150	150
119	119
103	103
119	119
133	133
106	106
95	95
163	163
152	152
130	130
122	122
147	147
125	125
52	52
33	33
67	67
146	146
121	121
42	42
-23	-23
55	55
-71	-71
1055	1055
2163	2163
-148	-148
-116	-116
-53	-53
-32	-32
19	19
59	59
62	62
35	35
-112	-112
-401	-401
-23	-23
-16	-16
620	620
4932	4932
-366	-366
-204	-204
1616	1616
2775	2775
2644	2644
-645	-645
-199	-199
-597	-597
-337	-337
-187	-187
-203	-203
1581	1581
3090	3090
-390	-390
-215	-215
-113	-113
-192	-192
-192	-192
-244	-244
-407	-407
-159	-159
9	9
-108	-108
-87	-87
-82	-82
-105	-105
-78	-78
-187	-187
-69	-69
-49	-49
-71	-71
15	15
-2	-2
-39	-39
-43	-43
39	39
41	41
33	33
-25	-25
74	74
107	107
68	68
68	68
31	31
6	6
12	12
1	1
23	23
-13	-13
45090	-38
45264	-46
45435	-40
45605	-74
45780	-54
45957	-3
46128	-10
46297	-31
46472	-31
46650	-54
46835	-16
47031	1
47226	9
47416	17
47601	-6
47781	0
47958	4
48129	-47
48299	-36
48475	5
48655	-39
48836	-82
49012	-72
49186	-78
49366	-91
49537	-78
49709	-69
49883	-39
50061	-40
50237	-34
50408	-2
50583	-54
50763	-49
50934	-39
51107	-78
51275	-112
51445	-89
51613	-54
51776	-54
51941	-75
52110	-69
52271	-82
52436	-65
52602	-38
52771	-57
52943	-35
53109	22
53272	-13
53433	-14
53602	-34
53778	-2
53950	-38
54126	63
54310	-56
54488	-50
54668	-104
54845	-34
55021	-56
55194	-29
55368	-47
55540	-40
55711	-105
55886	-80
56064	-97
56244	-79
56425	-35
56599	-20
56774	13
56945	5
57120	-6
57290	-21
57456	-18
57621	-25
57790	-72
57958	19
58125	37
58298	34
58470	9
58656	-21
58842	-51
59022	-57
59208	-50
59391	62
59574	9
59765	-12
59946	-3
60127	17
60305	15
60477	-16
60647	-60
60816	-25
60980	33
61148	34
61322	23
61492	-16
61672	-17
61853	-34
62031	-9
62213	106
62388	63
62574	38
62755	46
62929	22
63103	-14
63271	70
63438	-71
63606	-204
63769	-141
63934	-140
64103	-116
64274	-94
64453	-134
64633	-83
64811	-90
65004	-102
65186	-120
65363	-82
65538	-54
65715	-86
65889	-71
66059	-49
66236	-56
66406	-68
66585	-28
66766	-10
66942	0
67118	-74
67303	-38
67486	-64
67675	-53
67862	-27
68053	-50
68241	-74
68427	-21
68615	-18
68799	-23
68975	-25
69150	-79
69328	-2
69508	-34
69690	-35
69881	-50
70068	5
70254	-17
70439	-7
70621	-6
70808	-34
70990	-54
71170	-101
71352	-74
71532	-64
71705	-60
71879	-45
72051	-54
72219	-49
72385	-67
72558	-57
72730	-120
72902	-76
73081	-94
73256	-27
73432	-31
73617	20
73806	-2
73983	5
74173	6
74394	12
74602	0
74811	-12
75017	-13
75216	-3
75406	-28
75592	-51
75773	-74
75955	-138
76137	-80
76314	-75
76486	-38
76654	-23
76817	-14
76979	-42
77143	-87
77309	-129
77480	-109
77661	-58
77836	-129
78015	-46
78196	-83
78372	-79
78554	-82
78733	-147
78922	-82
79108	-105
79287	-94
79464	-83
79638	-96
79808	-79
79979	-74
80151	-80
80323	-49
80501	-133
80677	-56
80858	-104
81039	-54
81218	-32
81398	1
81578	-49
81763	-54
81943	-71
82122	-63
82294	-80
82461	-69
82632	-112
82798	-113
82969	-90
83140	-29
83316	-68
83491	-72
83665	-67
83843	-78
84018	-57
84198	-65
84377	-57
84548	-93
84729	-53
84910	-53
85083	-45
85257	-69
85430	-85
85591	-141
85758	-85
85932	-123
86121	-90
86308	-101
86507	-75
86708	-94
86920	-63
87128	-90
87339	-97
87550	-94
87750	-97
87955	-58
88153	-83
88341	-93
88533	-72
88735	-104
88928	-107
89144	-96
89343	-87
89552	-75
89747	-83
89949	-71
90141	-80
90327	-100
90517	-96
90706	-89
90890	-76
91083	-90
91273	-85
91466	-80
91653	-80
91844	-87
92036	-64
92225	-100
92421	-65
92610	-87
92800	-36
92978	-94
93154	-232
93323	-131
93482	-32
93638	-38
93792	-61
93942	-45
94089	-36
94235	-122
94376	-64
94517	-36
94655	-46
94790	-23
94924	-42
95057	-6
95189	13
95320	-14
95453	-12
95583	-40
95723	-82
95860	-34
95996	37
96132	-24
96270	15
96413	-40
96560	-27
96707	-64
96854	-58
97007	-72
97155	-53
97305	-64
97451	-63
97594	-83
97736	-85
97875	-83
98012	-93
98148	-93
98283	-75
98417	-39
98554	-57
98688	-93
98829	-51
98969	-80
99110	-74
99256	-69
99399	-43
99550	-65
99700	-50
99852	-58
99999	-71
100144	-80
100287	-79
100429	-75
100571	-63
100714	-136
100856	-69
100998	-57
101143	-40
101286	-46
101430	-23
101575	-40
101721	-21
101868	-38
102013	-10
102159	-64
102308	-51
102456	-35
102607	-57
102759	-12
102914	-58
103068	-60
103221	-51
103374	-65
103530	-79
103688	-78
103847	-153
104007	-78
104164	-51
104323	-32
104477	-32
104628	-72
104781	-61
104939	-79
105106	-102
105274	-56
105437	-40
105611	-61
105780	-76
105959	-72
106133	-107
106300	-47
106466	4
106626	-91
106784	-25
106944	-5
107101	-63
107260	-69
107419	-75
107585	-74
107752	-72
107913	-102
108075	-16
108242	-109
108403	-87
108567	-87
108729	-112
108895	-89
109060	-79
109221	-98
109380	-155
109537	-68
109701	-61
109862	-65
110020	-120
110175	-126
110335	-104
110496	-96
110653	-68
110813	-69
110970	-53
111133	-63
111302	-67
111465	-76
111622	-93
111779	-83
111942	-47
112104	110
112267	-236
112425	-120
112585	-105
112750	-116
112918	-115
113080	-142
113247	-127
113412	-111
113575	-104
113735	-127
113905	-116
114077	-147
114241	-107
114401	-118
114569	-122
114739	-98
114904	-49
115085	-80
115262	-112
115428	-133
115592	-120
115763	-98
115940	-109
116126	-100
116324	-120
116512	-75
116707	-64
116895	-93
117074	-123
117250	-89
117419	-85
117588	-78
117759	-98
117929	-125
118096	-111
118267	-134
118448	-109
118627	-101
118799	-109
118971	-54
119144	-72
119316	-78
119482	-79
119651	-56
119821	-75
119996	-83
120174	-89
120354	-107
120527	-58
120700	-50
120873	-67
121048	-105
121214	-125
121393	-100
121569	-109
121745	-78
121910	-16
122071	-79
122228	-104
122379	-93
122528	-40
122682	-72
122842	-40
123005	-61
123170	6
123333	-3
123497	0
123659	-58
123823	-42
123986	-71
124155	-50
124324	-107
124487	-57
124647	-38
124809	-72
124973	-102
125136	-80
125306	-86
125474	-85
125652	-21
125837	37
126018	-42
126192	-78
126354	-78
126511	-96
126672	-170
126848	-171
127043	-118
127214	-79
127394	-188
127595	-76
127799	-42
127988	-104
128170	-83
128350	-85
128523	-67
128699	-54
128869	-65
129034	-65
129197	-32
129354	-53
129508	-49
129661	-89
129813	-98
129966	-96
130122	-76
130286	-96
130451	-80
130627	-104
130808	-89
130979	-90
131147	-108
131326	-72
131500	-87
131676	-50
131858	-86
132034	-17
132214	-23
132385	1
132549	2
132707	-34
132863	-43
133016	-82
133179	-101
133342	-109
133502	-108
133676	-123
133848	-51
134017	-43
134199	-32
134374	-60
134545	-2
134717	-28
134891	-43
135061	-57
135226	-50
135388	-89
135554	-61
135719	-57
135879	-47
136037	-75
136197	-65
136352	-53
136504	-80
136661	-97
136817	-118
136980	-97
137145	5
137325	-98
137507	-158
137686	-144
137876	-45
138057	-107
138240	-134
138418	-104
138597	-91
138773	-91
138955	-61
139138	-87
139319	-97
139492	-85
139678	-118
139858	-111
140039	-27
140222	-101
140412	-87
140598	-107
140778	-164
140955	-64
141127	-102
141297	-144
141464	-122
141633	-93
141809	-133
141987	-18
142165	-126
142338	-96
142523	-100
142703	-107
142887	-123
143063	-85
143237	-71
143407	-78
143571	-72
143733	-80
143896	-60
144068	-90
144245	-75
144416	-123
144596	-80
144767	-153
144937	-137
145114	-175
145298	-181
145484	-125
145674	-147
145855	-116
146041	-130
146226	-97
146406	-107
146594	-105
146779	-63
146967	-111
147166	-58
147365	-68
147570	-56
147770	-68
147958	-78
148158	-74
148354	-104
148540	-115
148743	-86
148945	-98
149136	-97
149346	-86
149559	-90
149762	-90
149978	-90
150187	-91
150396	-72
150593	-102
150787	-65
150968	-80
151143	-164
151310	-71
151484	-115
151661	-49
151835	-39
152017	-60
152202	-79
152385	-65
152578	-102
152776	-97
152959	-109
153161	-86
153383	-76
153583	-82
153789	-82
153996	-64
154194	-43
154418	-42
154628	-36
154838	4
155042	-83
155252	-74
155445	-108
155637	-79
155820	-85
156009	-86
156194	-80
156372	-60
156558	-133
156743	-134
156938	-78
157142	-74
157334	-83
157548	-56
157755	-65
157951	-71
158161	-87
158379	-78
158581	-80
158796	-91
159022	-90
159264	-63
159485	-72
159700	-78
159910	-93
160105	-74
160308	-85
160502	-82
160685	-17
160863	-3
161042	8
161212	23
161377	-38
161540	-36
161703	-80
161860	-91
162026	-145
162196	-138
162361	-109
162532	-156
162709	-123
162884	-151
163063	-152
163250	-130
163437	-89
163623	-53
163818	-50
164012	-89
164194	-102
164379	-126
164555	-94
164730	-100
164903	-28
165076	-74
165251	-102
165421	-64
165601	-82
165781	-134
165964	-127
166148	-109
166325	-145
166494	-123
166658	-90
166829	-101
166996	-100
167164	-78
167350	-105
167518	-67
167689	-97
167867	-94
168041	-63
168210	-107
168382	-94
168546	-112
168709	-116
168873	-100
169031	-102
169198	-105
169371	-96
169549	-75
169733	-64
169919	-119
170099	-126
170278	-80
170453	-133
170621	-76
170788	-75
170961	-87
171131	-94
171302	-119
171476	-91
171652	-90
171831	-74
172016	-91
172203	-85
172399	-82
172604	-65
172799	-63
172993	-80
173193	-90
173380	-83
173567	-96
173754	-56
173933	-79
174120	-83
174306	-65
174490	-87
174685	-79
174882	-118
175073	-98
175271	-101
175468	-118
175657	-83
175857	-105
176051	-75
176238	-87
176430	-118
176617	-115
176801	-125
176994	-89
177179	-109
177351	-96
177520	-120
177698	-185
177874	-599
178049	-144
178231	-89
178412	-184
178589	-23
178765	-86
178934	-65
179106	-101
179276	-80
179448	-137
179620	-79
179797	-112
180139	-74
180307	2
180470	-79
180631	-76
180795	-111
180964	-133
181133	-86
181300	-76
181473	-113
181649	-116
181821	-134
182005	-140
182185	-127
182360	-109
182535	-113
182709	-125
182886	-96
183065	-87
183250	-107
183431	-63
183616	-93
183811	-112
184002	-104
184208	-118
184396	-151
184591	-98
184782	-108
184968	-63
185155	-72
185361	-85
185569	-101
185771	-109
185983	-98
186185	-79
186386	-90
186588	-100
186776	-97
186959	-97
187146	-90
187338	-105
187518	-56
187702	-87
187886	-89
188067	-85
188246	-116
188428	-105
188604	-87
188788	-113
188972	-122
189157	-100
189339	-111
189524	-133
189713	-98
189900	-40
190096	-72
190294	-100
190479	-93
190669	-102
190866	-65
191062	-93
191265	-108
191463	-119
191661	-123
191859	-112
192057	-98
192250	-89
192448	-93
192647	-56
192838	-61
193032	-80
193229	-108
193416	-113
193607	-97
193797	-85
193983	-101
194172	-98
194362	-79
194541	-74
194728	-83
194919	-63
195110	-72
195300	-68
195490	-93
195676	-113
195864	-78
196047	-136
196231	-123
196424	-109
196606	-105
196791	-123
196973	-112
197147	-93
197319	-97
197495	-104
197672	-130
197844	-108
198017	-105
198196	-102
198374	-87
198553	-118
198728	-217
198907	-90
199098	-147
199283	-101
199466	-119
199647	-60
199827	-85
200006	-134
200187	-111
200361	-123
200528	-94
200691	-148
200853	-151
201014	-111
201175	-120
201339	-14
201508	0
201686	-6
201867	-10
202041	4
202206	-51
202374	-76
202541	-65
202708	-85
202878	-152
203050	-122
203216	-108
203383	-111
203547	-131
203715	-113
203885	-169
204050	-131
204219	-134
204386	-79
204552	-101
204715	-91
204875	-61
205037	-80
205202	-61
205375	-67
205552	-47
205725	-29
205904	-14
206089	-75
206272	-138
206451	-112
206630	-108
206808	-98
206982	-79
207156	-64
207336	-89
207512	-134
207685	-187
207858	-224
208027	-162
208203	-113
208379	-71
208548	-65
208715	-32
208880	-13
209051	-83
209222	-130
209390	-130
209563	-174
209727	-184
209890	-171
210052	-127
210212	-63
210369	-42
210523	-21
210675	-69
210833	-50
210998	-104
211162	-90
211330	-129
211501	-113
211674	-87
211848	-105
212018	-89
212192	-87
212369	-78
212544	-87
212718	-61
212898	-60
213071	-89
213244	-89
213417	-105
213590	-102
213769	-74
213948	-65
214127	-100
214300	-74
214483	-94
214663	-126
214838	-105
215021	-115
215208	-91
215392	-108
215575	-83
215761	-116
215940	-112
216124	-85
216309	-94
216490	-65
216667	-79
216855	-129
217039	-125
217215	-123
217391	-147
217561	-79
217725	-94
217888	-104
218057	-96
218224	-83
218394	-76
218567	-57
218736	-63
218908	-61
219080	-98
219252	-80
219423	-111
219595	-96
219766	-79
219934	-105
220107	-43
220282	-125
220449	-56
220623	-61
220797	-137
220965	-126
221145	-78
221319	-140
221498	-115
221683	-140
221861	-96
222041	-133
222224	-93
222402	-102
222572	-127
222741	-126
222910	-86
223076	-104
223245	-86
223423	-94
223607	-101
223787	-153
223970	-156
224157	-129
224340	-122
224517	-111
224700	-109
224884	-123
225069	-102
225268	-101
225463	-112
225651	-109
225844	-83
226031	-101
226226	-131
226417	-142
226604	-142
226783	-104
226954	-85
227117	-100
227274	-105
227432	-97
227588	-71
227742	-107
227894	-86
228043	-145
228193	-134
228348	-134
228504	-138
228669	-119
228833	-158
229004	-140
229180	-166
229351	-147
229529	-108
229713	-108
229896	-107
230082	-116
230273	-141
230461	-120
230657	-136
230849	-89
231037	-94
231219	-109
231411	-98
231595	-79
231767	-116
231934	-151
232097	-164
232258	-174
232429	-148
232597	-177
232770	-126
232939	-151
233112	-137
233286	-105
233451	-105
233611	-111
233769	-104
233937	-101
234112	-96
234287	-108
234474	-142
234657	-155
234847	-138
235023	-116
235207	-102
235396	-78
235587	-79
235770	-49
235948	-45
236130	-86
236307	-130
236490	-85
236672	-69
236860	-120
237043	-181
237216	-210
237381	-171
237553	-156
237730	-151
237905	-138
238087	-182
238263	-159
238433	-159
238615	-153
238802	-127
238984	-78
239161	-96
239331	-100
239507	-116
239696	-104
239898	-129
240086	-126
240282	-115
240483	-76
240685	-68
240892	-98
241086	-137
241283	-96
241480	-89
241662	-86
241842	-56
242023	-50
242200	-94
242392	-87
242587	-82
242772	-141
242972	-96
243165	-140
243351	-125
243541	-118
243734	-87
243916	-115
244099	-94
244282	-89
244463	-145
244653	-122
244850	-159
245034	-120
245221	-96
245401	-93
245578	-100
245752	-125
245931	-94
246115	-102
246296	-87
246488	-71
246686	-72
246881	-118
247067	-94
247251	-113
247439	-133
247620	-120
247796	-119
247974	-145
248154	-142
248330	-156
248512	-141
248694	-145
248873	-136
249048	-112
249228	-97
249403	-123
249574	-142
249744	-83
249915	-105
250080	-102
250244	-100
250412	-123
250584	-119
250752	-113
250924	-90
251098	-101
251267	-137
251435	-129
251607	-104
251774	-153
251937	-123
252102	-181
252267	-147
252434	-191
252600	-153
252771	-169
252945	-126
253112	-142
253285	-149
253459	-160
253633	-145
253805	-127
253978	-137
254153	-131
254326	-137
254496	-123
254672	-131
254847	-127
255022	-113
255195	-78
255371	-49
255546	-82
255719	-85
255896	-83
256073	-122
256248	-93
256427	-87
256603	-100
256773	-169
256950	-159
257121	-185
257289	-174
257457	126
257620	658
257778	0
257935	17
258091	-58
258258	-85
258443	-100
258623	-109
258793	-93
258961	-109
259125	-127
259285	-78
259443	-98
259597	-141
259750	-159
259901	-159
260051	-214
260200	-220
260349	-236
260501	-184
260654	-167
260809	-129
260977	-144
261139	-90
261300	-144
261457	-169
261623	-145
261795	-127
261979	-142
262163	-160
262348	-120
262536	-107
262720	-107
262904	-111
263084	-54
263270	-158
263446	-118
263625	-107
263800	-130
263975	-120
264153	-90
264329	-72
264504	-34
264678	-79
264851	-122
265024	-85
265200	-131
265385	-152
265561	-148
265731	-155
265898	-164
266075	-140
266245	-58
266416	-104
266586	-138
266759	-113
266927	-229
267092	-57
267255	-163
267417	-109
267579	-129
267750	-138
267921	-133
268096	-115
268276	-129
268455	-89
268632	-123
268810	-140
268980	-180
269145	-174
269306	-119
269461	-178
269616	-151
269774	-78
269939	-98
270108	-152
270289	-133
270464	-138
270641	-151
270817	-156
270990	-134
271170	-105
271347	-112
271527	-89
271701	-91
271878	-100
272059	-133
272231	-228
272393	-109
272557	-138
272721	-125
272891	-65
273065	-108
273248	-105
273425	-115
273608	-97
273802	-54
273990	-98
274177	-60
274366	-98
274556	-136
274767	-43
274965	-207
275151	-83
275344	-160
275529	-184
275707	-116
275888	-75
276061	-126
276229	-82
276404	-127
276578	-140
276749	-91
276930	-115
277108	-115
277282	-116
277461	-104
277636	-83
277810	-93
277984	-126
278151	-112
278326	-116
278504	-111
278674	-131
278851	-115
279026	-140
279194	-123
279368	-112
279541	-105
279709	-113
279881	-108
280054	-120
280221	-140
280392	-144
280564	-163
280730	-144
280901	-109
281071	-129
281238	-112
281403	-82
281565	-133
281724	-131
281880	-163
282040	-141
282198	-86
282366	-116
282539	-101
282707	-113
282880	-142
283046	-65
283209	-39
283369	100
283530	13
283692	44
283852	-21
284012	-118
284172	-115
284333	-142
284504	-144
284670	-163
284837	-196
285001	-187
285163	-213
285322	-209
285482	-166
285642	-130
285803	-137
285962	-64
286125	-69
286299	-61
286477	-61
286661	-78
286839	-61
287032	-68
287229	-98
287423	-93
287623	-107
287808	-74
287994	-89
288180	-116
288358	-109
288543	-76
288728	-105
288908	-122
289094	-145
289277	-123
289455	-126
289641	-137
289825	-137
290001	-136
290179	-129
290350	-120
290529	-158
290701	-126
290878	-54
291057	-67
291239	-118
291420	-112
291596	-137
291777	-85
291955	-170
292128	-116
292297	-89
292461	-123
292627	-118
292799	-142
292978	-123
293158	-122
293340	-189
293516	-75
293692	-67
293861	-98
294027	-213
294195	-198
294375	-311
294558	-83
294751	-116
294954	-166
295149	-57
295366	-14
295583	1162
295597	6090
295804	1929
296006	998
296204	699
296406	526
296590	566
296771	194
296951	99
297119	-20
297286	-148
297452	-193
297613	-277
297773	-335
297934	-437
298095	-367
298263	-322
298436	-335
298606	-368
298776	-368
298944	-382
299117	-333
299288	-301
299454	-291
299622	-254
299791	-200
299955	-152
300115	-200
300273	-173
300432	-181
300593	-129
300757	-141
300929	-142
301111	-166
301291	-169
301465	-134
301642	-116
301826	-140
301999	-151
302175	-158
302347	-144
302518	-116
302690	-134
302857	-78
303026	-68
303189	-76
303351	-68
303512	-105
303670	-76
303839	-89
304009	-152
304182	-138
304365	-98
304539	-86
304712	-80
304886	-51
305052	-7
305218	-23
305389	-16
305562	-108
305729	-85
305903	-113
306070	-158
306232	-79
306388	-111
306551	-170
306719	-156
306885	-137
307050	-111
307216	-120
307382	-141
307548	-126
307708	-134
307867	-140
308031	-79
308194	-91
308353	-160
308520	-169
308691	-156
308857	-144
309026	-145
309202	-162
309377	-156
309564	-145
309755	-153
309940	-141
310132	-151
310320	-93
310498	-166
310682	-134
310861	-126
311043	-137
311226	-144
311402	-104
311579	-104
311753	-120
311938	-140
312120	-163
312304	-160
312492	-160
312672	-209
312861	-196
313059	-170
313250	-163
313442	-133
313639	-119
313827	-151
314036	-145
314225	-166
314409	-163
314589	-177
314773	-136
315161	-126
315348	-57
315531	-174
315713	-181
315891	-122
316062	-140
316236	-127
316418	-123
316597	-140
316774	-116
316942	-129
317117	-140
317295	-115
317467	-111
317643	-115
317815	-85
317987	-91
318157	-119
318329	-127
318492	-133
318652	-137
318809	-148
318968	-144
319133	-164
319312	-147
319494	-159
319673	-136
319860	-138
320049	-109
320233	-102
320419	-100
320597	-125
320767	-50
320935	-31
321100	13
321263	-23
321423	-50
321586	-87
321751	-86
321919	-93
322084	-107
322240	-137
322395	-180
322554	-191
322709	-180
322863	-170
323014	-159
323164	-191
323316	-169
323478	-192
323652	-166
323828	-160
324010	-153
324190	-142
324367	-159
324535	-160
324708	-163
324892	-140
325072	-105
325249	-102
325435	-136
325626	-129
325810	-116
325994	-101
326175	-107
326351	-111
326533	-107
326710	-89
326879	-113
327045	-134
327207	-136
327380	-144
327554	-131
327724	-102
327890	-140
328061	-123
328226	-137
328386	-108
328547	-86
328705	-94
328872	-120
329039	-101
329204	-148
329363	-118
329528	-166
329689	-180
329856	-170
330025	-122
330191	-129
330358	-149
330522	-171
330681	-127
330843	-156
331006	-149
331167	-134
331324	-149
331486	-158
331649	-173
331809	-153
331968	-136
332125	-138
332278	-148
332432	-177
332582	-108
332730	-134
332876	-98
333024	-89
333171	-93
333315	-125
333465	-126
333618	-140
333766	-101
333916	-113
334070	-78
334233	-120
334404	-140
334569	-187
334729	-203
334885	-147
335037	-113
335189	-115
335339	-115
335488	-104
335647	-61
335807	-191
335971	-131
336137	-171
336304	-56
336481	-43
336662	-93
336840	-78
337023	-93
337205	-75
337377	-111
337547	-118
337713	-116
337892	-96
338072	-94
338251	-86
338446	-115
338637	-86
338843	-112
339035	-90
339224	-140
339414	-171
339593	-149
339778	-80
339956	-85
340135	-97
340318	-133
340498	-163
340677	-49
340857	-51
341029	-40
341201	-102
341374	-89
341546	-101
341719	-149
341899	-155
342080	-187
342259	-119
342452	-156
342643	-104
342828	-94
343017	-31
343199	-115
343386	-100
343579	-141
343771	-149
343963	-192
344149	-238
344334	-131
344521	-149
344702	-147
344876	-147
345054	-130
345233	-125
345410	-118
345583	-27
345758	-56
345938	-47
346120	-86
346302	-93
346483	-61
346667	-61
346858	-141
347042	-97
347218	-87
347392	-148
347569	-78
347750	-102
347924	-127
348094	-130
348263	-140
348435	-115
348614	-134
348799	-134
348983	-134
349161	-137
349346	-156
349522	-191
349698	-215
349884	-141
350066	-113
350239	-102
350416	-105
350601	-98
350780	-57
350957	-90
351137	-111
351318	-111
351503	-96
351694	-76
351874	-156
352058	-147
352239	-147
352417	-119
352590	-149
352769	-91
352946	-119
353117	-148
353289	-109
353465	-115
353640	-98
353807	-140
353973	-123
354143	-152
354309	-155
354469	-136
354628	-126
354786	-133
354943	-113
355101	-115
355272	-87
355443	-71
355611	-79
355791	-105
355976	-97
356160	-104
356342	-98
356518	-130
356694	-218
356872	-213
357048	-167
357220	-200
357388	-169
357556	-144
357720	-109
357882	-71
358043	-122
358199	-91
358353	-97
358510	-116
358674	-93
358840	-60
359004	-50
359166	-34
359326	-38
359488	-69
359650	-61
359809	-61
360128	-156
360300	-120
360478	-116
360654	-107
360829	-58
361010	-74
361197	-174
361377	-204
361564	-152
361750	-152
361933	-127
362109	-116
362298	-120
362484	-129
362667	-144
362867	-115
363070	-39
363262	-31
363458	-35
363649	-57
363844	-29
364035	-85
364227	-71
364410	-67
364595	-50
364771	35
364939	-6
365111	-18
365282	-72
365450	-78
365615	-97
365778	-49
365946	-46
366112	-123
366278	-174
366443	-180
366623	-169
366805	-196
366991	-239
367169	-162
367344	-295
367519	-222
367690	-187
367858	-174
368024	-170
368191	-134
368354	-158
368525	-195
368718	-242
368916	-177
369116	-171
369300	-155
369475	-152
369644	-130
369808	-122
369971	-131
370145	-107
370313	-68
370488	-38
370672	-102
370847	-93
371017	-140
371195	-202
371376	-199
371568	-187
371763	-160
371945	-98
372125	-85
372313	-97
372502	-82
372689	-90
372872	-102
373061	-86
373247	-104
373427	-152
373609	-120
373787	-104
373962	-118
374130	-89
374301	-119
374489	-137
374689	-130
374891	-130
375092	-112
375279	-98
375465	-78
375646	-118
375821	-115
375991	-133
376165	-142
376338	-158
376514	-130
376684	-134
376859	-123
377033	-120
377206	-119
377378	-130
377555	-113
377738	-89
377917	-91
378088	-72
378258	-74
378430	-100
378599	-96
378761	-91
378920	-60
379081	-69
379244	-64
379406	-61
379569	-64
379728	-102
379888	-151
380054	-140
380221	-170
380395	-170
380572	-153
380751	-159
380932	-160
381112	-134
381293	-167
381472	-148
381652	-166
381829	-134
382008	-115
382185	-137
382358	-108
382524	-118
382688	-125
382851	-116
383012	-82
383172	-102
383330	-122
383486	-138
383647	-138
383806	-141
383965	-111
384126	-140
384283	-80
384440	-130
384593	-149
384745	-147
384895	-151
385042	-78
385189	-105
385339	-61
385493	-78
385641	-100
385787	-104
385932	-63
386076	-80
386219	-102
386364	-100
386508	-113
386651	-112
386797	-119
386945	-100
387090	-122
387241	-213
387401	-149
387564	-158
387725	-131
387893	-136
388066	-158
388247	-137
388434	-105
388614	-133
388815	-113
389001	-89
389191	-90
389373	-111
389563	-107
389749	-105
389926	-105
390105	-86
390279	-58
390454	-107
390641	-113
390827	-149
391000	-134
391173	-122
391344	-111
391523	-97
391714	-138
391901	-112
392097	-130
392297	-112
392487	-127
392670	-100
392844	-115
393010	-116
393173	-68
393330	-101
393487	-109
393642	-111
393794	-101
393949	-101
394105	-122
394262	-127
394427	-127
394593	-134
394754	-112
394918	-105
395088	-155
395255	-113
395431	-126
395602	-134
395774	-148
395954	-123
396133	425
396311	445
396495	436
396678	214
396853	82
397037	9
397219	-60
397397	-112
397573	-126
397744	-120
397928	-174
398103	-133
398273	-203
398442	-284
398620	-284
398801	-279
398976	-247
399152	-215
399323	-229
399491	-228
399656	-213
399823	-231
399991	-180
400164	-180
400334	-177
400509	-166
400683	-160
400849	-158
401022	-136
401195	-127
401368	-94
401544	-97
401716	-90
401888	-115
402060	-148
402229	-173
402392	-162
402556	-185
402727	-141
402893	-109
403070	-71
403258	-90
403443	-71
403627	-156
403805	-129
403980	-170
404150	-126
404320	-134
404493	-131
404673	-112
404853	-91
405028	-116
405217	-148
405410	-147
405598	-113
405791	-104
405978	-123
406158	-118
406333	-122
406503	-118
406670	-119
406834	-104
407001	-87
407170	-89
407338	-75
407512	-107
407691	-85
407862	-113
408031	-94
408198	-169
408358	-153
408517	-122
408676	-152
408832	-125
408983	-630
409131	38
409278	383
409424	259
409573	56
409728	-31
409877	-85
410024	-122
410175	-155
410336	-180
410500	-203
410673	-173
410843	-163
411023	-182
411213	-209
411396	-225
411577	-236
411758	-240
411936	-249
412108	-225
412285	-235
412477	-226
412661	-217
412846	-198
413031	-182
413210	-174
413383	-167
413554	-171
413726	-167
413895	-164
414057	-170
414219	-182
414384	-193
414548	-166
414715	-192
414886	-125
415054	-90
415229	-130
415398	-162
415562	-166
415723	-127
415879	-171
416034	-98
416186	-90
416336	-60
416485	-94
416634	-185
416784	-170
416936	-158
417089	-173
417238	-142
417388	-166
417539	-134
417690	-173
417850	-140
418004	-162
418158	-166
418314	-138
418469	-184
418630	-164
418791	-122
418953	-61
419114	-42
419272	-64
419426	-116
419575	-93
419722	-91
419867	-79
420011	-115
420160	-131
420318	-54
420493	-163
420671	-108
420845	-149
421033	-196
421215	-123
421394	-122
421586	-233
421766	-163
421951	-131
422138	-105
422325	-85
422509	-72
422685	-57
422863	-86
423036	-72
423214	-104
423391	-101
423571	-141
423748	-123
423922	-130
424087	-68
424250	-101
424417	-118
424578	-148
424738	-153
424899	-209
425057	-198
425210	-93
425365	-107
425542	-102
425717	-126
425887	-122
426051	-148
426217	-170
426382	-153
426548	-87
426707	-18
426865	-61
427025	-74
427181	-78
427341	-97
427505	-119
427665	-158
427825	-182
427989	-185
428151	-185
428313	-160
428479	-130
428648	-125
428820	-111
428990	-118
429162	-113
429344	-158
429518	-126
429684	-120
429850	-105
430015	-149
430175	-177
430342	-140
430515	-171
430682	-144
430851	-141
431017	-125
431184	-130
431346	-96
431516	-85
431682	-119
431844	-130
432004	-113
432168	-140
432327	-134
432486	-144
432649	-151
432814	-174
432994	-108
433167	-131
433337	-153
433503	-153
433666	-82
433827	-87
433987	-131
434149	-148
434307	-87
434462	-164
434615	-171
434766	-125
434915	-206
435066	-163
435215	-118
435371	-83
435530	-86
435690	-102
435860	-109
436034	-163
436211	-134
436391	-126
436569	-152
436754	-82
436934	-98
437108	-43
437290	-141
437467	-151
437654	-122
437831	-153
437999	-123
438164	-109
438328	-85
438488	-75
438656	-145
438832	-108
439012	-145
439188	-166
439371	-109
439548	-50
439737	-148
439927	-50
440107	-61
440284	-32
440456	-87
440627	-69
440788	53
440950	-2
441113	13
441276	-36
441436	-72
441598	-142
441755	-137
441909	-51
442061	-140
442210	-63
442355	-129
442497	-118
442634	249
442772	-155
442906	-54
443038	-60
443306	-31
443443	-20
443584	-2
443725	-61
443860	-166
443995	-29
444148	-38
444307	-46
444467	-131
444629	-120
444835	-102
445017	-151
445185	-137
445343	-147
445525	-116
445718	-130
445904	-151
446080	-188
446255	-155
446429	-136
446590	-142
446744	-102
446893	-90
447047	-80
447197	-115
447344	-118
447492	-116
447649	-158
447814	-169
447982	-129
448143	-134
448302	-123
448456	-94
448605	-118
448752	-119
448903	-93
449065	-87
449234	-102
449429	-86
449641	-98
449837	-98
450031	-112
450218	-91
450399	-50
450575	-89
450744	-133
450908	-167
451067	-149
451222	-130
451376	-134
451535	-174
451697	-151
451855	-184
452013	-123
452177	-129
452344	-149
452504	-136
452664	-118
452819	-116
452973	-75
453126	-78
453289	-109
453458	-107
453630	-174
453794	-148
453964	-122
454141	-153
454320	-75
454493	-50
454667	-140
454838	-134
455011	-140
455176	-120
455343	-160
455509	-188
455692	-264
455883	-301
456072	-385
456262	-341
456457	-250
456650	-195
456841	-142
457033	-107
457214	-102
457389	-80
457556	-65
457723	-109
457887	1
458045	-83
458203	-69
458362	-105
458527	-98
458703	-101
458871	-125
459046	-96
459213	-111
459386	-112
459559	-112
459730	-112
459908	-91
460087	-100
460266	-113
460438	-111
460606	-123
460767	-108
460927	-94
461094	-109
461271	-113
461448	-130
461621	-140
461797	-174
461967	-113
462129	-94
462290	-113
462460	-111
462628	-108
462795	-125
462958	-111
463125	-109
463293	-141
463456	-119
463633	-96
463803	-111
463968	-136
464130	-152
464288	-158
464442	-155
464592	-173
464737	-147
464883	-125
465030	-123
465175	-90
465322	-94
465465	-129
465614	-140
465792	-147
465974	-155
466157	-159
466339	-151
466529	-141
466717	-191
466898	-187
467076	-155
467244	-118
467412	-141
467573	-67
467730	4
467888	1
468049	-71
468214	-86
468376	-155
468538	-200
468705	-184
468874	-162
469055	-123
469231	-158
469397	-126
469575	-122
469760	-131
469950	-142
470152	-123
470352	-108
470555	-145
470761	-160
470960	-122
471156	-122
471346	-107
471522	-108
471698	-127
471873	-108
472052	-173
472235	-162
472411	-86
472597	-260
472773	-53
472953	-78
473124	-116
473297	-69
473477	410
473656	203
473832	111
474006	90
474179	64
474353	248
474524	9
474696	-82
474866	-228
475041	-123
475212	-180
475381	-196
475550	-309
475711	-228
475878	-226
476047	-224
476219	-225
476386	-236
476551	-177
476718	-126
476879	-148
477041	-169
477202	-111
477369	-126
477538	-125
477704	-60
477869	-158
478030	-94
478195	-152
478356	-189
478516	-149
478678	-181
478840	-162
479015	-164
479188	-159
479359	-89
479524	-79
479686	-45
479845	-61
480001	-104
480157	-101
480316	-134
480475	-174
480633	-119
480789	-101
480952	-142
481115	-177
481278	-130
481442	-148
481602	-102
481762	-164
481920	-149
482080	-182
482242	-174
482412	-160
482580	-148
482760	-192
482951	-159
483138	-162
483321	-119
483504	-130
483693	-170
483872	-162
484044	-141
484213	-198
484376	-191
484534	-82
484691	-38
484850	-123
485002	-164
485156	-125
485310	-171
485469	-105
485629	-160
485789	-178
485951	-160
486109	-174
486264	-159
486421	-177
486585	-148
486746	-142
486904	-138
487058	-79
487221	-94
487393	-137
487570	-122
487748	-108
487914	-148
488095	-104
488298	-96
488486	-129
488683	-126
488875	-159
489069	-138
489259	-138
489450	-144
489636	-75
489815	-118
489992	-79
490179	-64
490371	-69
490555	-39
490744	-64
490925	-29
491105	-3
491279	-28
491451	22
491629	-31
491809	-49
491981	-24
492168	-29
492360	-42
492550	-118
492737	-224
492916	-344
493088	-277
493253	-123
493409	-100
493561	-67
493709	-46
493856	-36
494005	11
494168	-104
494341	53
494505	24
494664	56
494821	-9
495138	-75
495296	-115
495452	-85
495607	-42
495760	-156
495912	-134
496062	-98
496209	-98
496352	-162
496493	-141
496631	-133
496769	-207
496904	-170
497039	82
497171	-458
497209	-63
497305	-181
497444	-213
497592	253
497737	-211
497894	-175
498041	42
498203	-136
498347	-9
498498	92
498661	12
498816	13
498965	290
499115	-112
499266	-54
499413	-118
499559	-229
499700	-226
499857	-225
500008	-353
500158	-287
500313	-408
500473	-447
500631	-452
500790	-341
500948	-366
501110	-399
501277	-308
501455	-313
501627	-257
501799	-353
501979	-295
502154	-257
502331	-260
502507	-174
502681	-173
502857	-94
503029	-69
503197	-131
503366	-45
503529	-156
503695	-141
503864	-17
504049	-17
504227	-160
504400	-131
504567	-131
504729	-112
504891	-36
505052	-198
505216	-148
505399	-56
505580	-185
505767	-50
505964	-167
506159	-20
506364	-125
506557	-181
506772	-75
506996	-199
507199	-188
507409	-72
507629	-57
507833	-173
508031	-166
508220	-297
508436	-337
508627	-446
508809	-441
508983	-407
509152	-182
509319	-206
509487	-144
509664	-49
509853	-118
510040	-126
510220	-238
510409	-158
510598	-53
510779	-136
510960	16
511136	45
511309	-27
511478	24
511667	20
511852	-9
512058	-24
512264	-13
512463	-112
512648	-72
512823	-18
512988	-89
513148	-147
513311	-120
513483	-125
513658	-209
513849	-122
514056	-102
514255	-148
514468	-149
514679	-144
514920	-102
515161	-39
515380	-74
515618	-32
515880	-53
516150	-36
516402	-90
516650	-75
516895	-90
517126	-54
517325	-98
517524	-13
517722	-63
517913	-111
518105	-104
518323	-131
518532	-130
518732	-199
518934	-163
519137	-148
519351	-156
519546	-273
519743	-258
519949	-232
520160	-188
520362	-214
520575	-155
520801	-214
521010	-282
521225	-229
521442	-200
521647	-153
521849	-130
522057	-97
522252	-182
522443	-164
522628	77
522803	26
522984	45
523166	63
523344	-9
523523	8
523700	38
523874	-46
524050	-20
524229	8
524407	-38
524589	-50
524778	-74
524967	-149
525163	-119
525372	-85
525568	-105
525765	-93
525963	-102
526147	-181
526345	-141
526536	-166
526724	-182
526933	-134
527138	-220
527344	-153
527553	-58
527751	-113
527947	-109
528143	-60
528329	-166
528520	-97
528706	-175
528893	-159
529083	-171
529265	-302
529447	-195
529626	-206
529809	-295
529999	-254
530180	-362
530368	-288
530568	-247
530765	-283
530955	-257
531159	-254
531370	-265
531570	-291
531786	-177
532026	-127
532271	-151
532491	-173
532716	-109
532949	-102
533179	-229
533410	-175
533641	-45
533852	-163
534071	-58
534314	-126
534552	-235
534773	-206
535002	-206
535218	-317
535428	-210
535639	-253
535839	-266
536040	-133
536243	-217
536448	-131
536650	-60
536841	-140
537035	73
537224	250
537404	-98
537582	-91
537754	-14
537926	-69
538114	-218
538304	-138
538496	-7
538719	1
538911	-102
539115	4
539326	24
539532	-13
539746	-3
540209	-80
540446	-330
540699	-67
540924	-145
541139	-104
541355	0
541559	12
541773	-10
542002	8
542213	1
542433	106
542666	84
542892	-24
543133	46
543376	108
543615	0
543830	-162
544049	-209
544282	-152
544507	-174
544738	-228
544968	-276
545204	-273
545445	-275
545682	-315
545897	-399
546113	-396
546335	-384
546565	-258
546800	-166
547034	-177
547246	-78
547466	-67
547686	63
547907	152
548114	52
548323	-17
548531	-14
548724	-147
548922	-120
549116	-158
549321	-175
549526	-290
549718	-298
549917	-286
550113	-225
550303	-233
550482	-287
550661	-257
550840	-326
551020	-210
551199	-322
551375	-253
551556	-228
551756	-200
551953	-189
552149	-162
552343	-147
552535	-115
552724	-119
552908	-134
553090	-140
553272	-145
553445	-149
553683	-159
553905	-265
554114	-269
554320	-204
554520	-93
554710	-116
554890	-20
555068	114
555268	162
555450	-97
555635	26
555823	92
556006	-151
556187	-74
556380	-67
556573	-74
556759	-279
556943	-232
557129	-93
557320	-39
557508	-23
557683	-233
557862	-158
558048	-104
558243	-119
558433	-97
558622	-195
558806	-199
558987	-189
559161	-196
559338	-156
559522	-163
559700	-357
559876	-191
560048	-238
560228	-118
560410	-31
560599	33
560787	5
560970	-12
561157	33
561353	37
561549	4
561744	-24
561934	-162
562121	-119
562308	-177
562492	-196
562674	-254
562858	-286
563037	-331
563214	-315
563389	-300
563560	-236
563764	-174
563964	-127
564158	-247
564357	-175
564571	-64
564796	-40
565000	-238
565202	-111
565421	-113
565630	-131
565832	-102
566030	-10
566218	-78
566400	33
566588	53
566779	22
566968	46
567161	19
567352	-82
567545	-144
567739	-144
567933	-115
568123	-122
568303	-368
568481	-345
568666	-279
568857	-254
569056	-198
569249	-251
569441	-242
569634	-204
569819	-232
570004	-177
570192	-203
570383	-171
570577	-138
570762	-153
570949	-69
571142	-94
571338	-68
571534	-130
571722	-138
571912	-138
572095	-145
572274	-127
572460	-203
572648	-144
572835	-167
573017	-233
573195	-228
573381	-137
573560	-185
573736	-94
573913	19
574094	35
574273	28
574457	60
574654	64
574851	-24
575041	-39
575231	-34
575412	-50
575591	-28
575771	-47
575956	-45
576141	-46
576326	-32
576529	11
576740	-24
576951	-29
577147	-60
577342	-39
577541	-23
577740	-65
577938	-91
578122	-127
578306	-134
578490	-138
578679	-133
578870	-173
579070	-159
579262	-169
579454	-111
579665	-111
579872	-163
580109	-239
580349	-287
580563	-359
580789	-293
581014	-254
581224	-235
581430	-238
581632	-102
581835	-126
582030	-133
582241	-112
582458	-126
582658	-142
582868	-119
583081	-113
583278	-170
583472	-228
583663	-202
583856	-142
584050	-123
584235	-160
584419	-178
584595	-171
584775	-153
585170	-148
585360	-158
585560	-134
585770	-67
585989	-112
586189	-169
586401	-149
586610	-142
586816	-130
587022	-29
587220	-20
587423	19
587624	-21
587821	0
588020	74
588209	13
588402	130
588596	108
588782	52
588967	-2
589145	-63
589329	-109
589511	-218
589699	-214
589906	-180
590125	-200
590340	-240
590547	-196
590778	-204
591007	-123
591245	-159
591466	-166
591688	-136
591920	-111
592132	-189
592348	-155
592572	-112
592799	-169
593012	-174
593247	-152
593480	-164
593702	-226
593927	-147
594147	-153
594356	-207
594561	-228
594765	-203
594961	-300
595164	-322
595363	-266
595567	-262
595757	-345
595952	-257
596153	-210
596349	-155
596535	-240
596718	-238
596908	-218
597098	-198
597290	-178
597476	-246
597658	-148
597841	-113
598027	-75
598211	-49
598390	-65
598570	-23
598768	6
598954	-86
599153	-5
599351	-12
599539	-50
599733	28
599929	115
600127	96
600315	-27
600509	-5
600708	-21
600914	-39
601110	-54
601315	24
601514	-28
601716	-27
601916	-50
602114	-112
602300	-191
602482	-163
602662	-153
602834	-152
603013	-148
603200	-163
603386	-247
603570	-254
603767	-200
603968	-167
604166	-178
604354	-225
604550	-123
604742	-164
604930	-141
605126	-65
605318	-29
605502	-69
605694	-3
605887	-46
606079	-178
606272	-75
606466	-98
606659	-83
606843	-204
607033	-105
607223	-149
607409	-107
607588	-220
607771	-109
607956	-75
608138	-109
608315	-83
608501	-78
608699	-200
608890	-151
609092	-137
609294	-199
609486	-192
609692	-107
609902	-72
610103	-85
610315	-60
610534	-56
610735	-68
610950	30
611152	-104
611368	-40
611587	-147
611794	-214
612009	-126
612231	-181
612439	-273
612671	-177
612897	-129
613098	-162
613307	-80
613513	-68
613712	-170
613919	-63
614124	-83
614320	-200
614519	-104
614725	-80
614920	-134
615111	-136
615294	-85
615501	-86
615707	-160
615922	-119
616140	-171
616337	-209
616540	-163
616740	-140
616930	-262
617119	-232
617312	-174
617512	-142
617700	-232
617890	-111
618082	-123
618273	-204
618469	-253
618660	-224
618850	-97
619057	-175
619249	-221
619457	-147
619664	-162
619868	-127
620074	-159
620268	-151
620463	-126
620677	-35
620889	56
621091	-12
621304	66
621520	74
621733	-18
621940	38
622146	-13
622346	-142
622535	-202
622733	-191
622939	-164
623147	-109
623347	-204
623545	-122
623741	-122
623936	-185
624123	-187
624305	-138
624510	-162
624707	-233
624895	-192
625097	-187
625301	-76
625503	-97
625699	-85
625903	-80
626106	-46
626312	-13
626504	-133
626693	-108
626884	-43
627081	-72
627284	-182
627478	-277
627679	-224
627879	-104
628083	-138
628284	-191
628490	-90
628699	-38
628905	-61
629101	-98
629291	-120
629479	-60
629662	-57
629846	-79
630022	-83
630208	-80
630402	-98
630588	-170
630778	-123
630971	-119
631163	-107
631346	-136
631532	-111
631728	-101
631924	-153
632115	-120
632297	-169
632476	-125
632652	-67
632872	-57
633083	-93
633277	-180
633484	-118
633678	-167
633880	-38
634083	4
634287	-108
634496	-9
634713	-16
634923	-116
635121	-148
635322	-10
635522	17
635721	-96
635908	-180
636093	-153
636286	-94
636487	-112
636694	-93
636895	-136
637083	-189
637276	-148
637475	-156
637673	-152
637868	-178
638051	-262
638236	-242
638416	-178
638591	-108
638774	-42
638964	-134
639147	-69
639336	-16
639531	42
639746	70
639971	50
640196	50
640435	52
640675	112
640902	66
641105	-68
641302	-46
641500	-94
641703	-200
641895	-217
642105	-210
642338	-261
642539	-368
642743	-279
642939	-175
643133	-189
643322	-174
643506	-152
643685	-115
643873	-102
644061	-195
644243	-180
644433	-144
644623	-109
644811	-207
644995	-153
645183	-138
645373	-182
645558	-173
645737	-214
645922	-134
646109	-122
646300	-134
646483	-193
646675	-144
646865	-134
647056	-71
647244	-130
647422	-125
647607	-118
647786	-101
647969	-105
648153	-156
648349	-131
648545	-90
648733	-164
648926	-82
649119	-53
649299	-279
649478	-50
649661	-25
649841	-136
650023	-58
650207	-69
650396	-126
650577	-144
650756	-67
650935	-43
651119	-53
651301	-131
651477	-214
651656	-229
651829	-232
652016	-210
652203	-250
652387	-155
652582	-90
652802	-69
653023	-102
653236	-53
653467	-13
653700	-3
653917	-65
654130	34
654352	75
654551	-25
654757	15
654961	20
655171	-35
655376	-195
655573	-204
655793	-156
656032	-217
656270	-268
656498	-272
656734	-261
656967	-207
657182	-182
657402	-116
657630	-107
657841	-171
658039	-148
658249	-60
658475	-29
658688	-46
658899	22
659113	19
659332	24
659534	-101
659752	-72
659964	-187
660156	-334
660347	-293
660530	-297
660710	-294
660909	-305
661099	-364
661292	-287
661505	-229
661734	-155
661947	-169
662186	-86
662429	-105
662667	-32
662909	0
663143	-42
663350	-71
663564	-24
663780	-40
663985	-74
664207	-42
664436	-64
664647	-101
664874	-100
665100	-123
665302	-162
665519	-131
665741	-199
665962	-251
666167	-302
666381	-275
666620	-175
666871	-141
667116	-126
667335	-134
667572	-90
667807	-79
668020	-136
668234	-79
668447	-82
668670	-94
668887	-141
669101	-115
669327	-131
669555	-153
669769	-189
669991	-149
670213	-113
670422	-120
670625	-129
670826	-125
671029	-144
671219	-173
671422	-155
671653	-90
671887	-54
672121	-32
672345	-45
672577	-13
672801	-5
673014	-13
673213	-60
673413	-28
673622	-46
673831	-71
674030	-162
674230	-149
674452	-145
674675	-141
674896	-163
675099	-198
675313	-164
675530	-159
675744	-178
675942	-193
676144	-148
676358	-127
676576	-109
676776	-127
676992	-80
677221	-74
677450	-96
677682	-42
677915	-40
678130	-58
678354	-35
678572	-56
678774	-105
678973	-83
679183	-86
679399	-133
679598	-177
679802	-152
680017	-155
680216	-232
680419	-166
680624	-116
680830	-123
681023	-145
681213	-115
681419	-86
681624	-104
681837	-116
682037	-116
682241	-94
682458	-98
682673	-90
682879	-65
683104	-39
683335	-40
683540	-35
683754	28
683966	-31
684173	-72
684367	-148
684561	-149
684756	-140
684946	-123
685127	-130
685316	-127
685495	-97
685691	-98
685887	-136
686072	-182
686266	-125
686475	-89
686690	-68
686912	-82
687128	-134
687356	-85
687588	-58
687815	-53
688031	-160
688241	-137
688475	-119
688706	-129
688930	-159
689147	-109
689361	-126
689562	-158
689754	-140
689953	-127
690155	-125
690355	-105
690546	-123
690745	-87
690952	-98
691157	-158
691361	-120
691593	-104
691830	-118
692041	-119
692256	-89
692470	-83
692675	-149
692878	-120
693086	-137
693301	-158
693509	-180
693719	-164
693948	-153
694205	-145
694438	-174
694688	-130
694938	-131
695153	-158
695362	-107
695559	-87
695748	-107
695930	-145
696114	-196
696342	-91
696584	-68
696824	-57
697061	-45
697304	-86
697551	-47
697796	-71
698045	-89
698291	-80
698535	-112
698777	-130
699016	-130
699235	-153
699464	-127
699701	-108
699940	-125
700185	-108
700432	-94
700677	-115
700925	-57
701178	-58
701416	-79
701626	-136
701825	-98
702027	-75
702236	-65
702458	-96
702664	-85
702886	-64
703114	-120
703321	-184
703533	-112
703741	-134
703952	-187
704147	-206
704353	-166
704558	-156
704759	-159
704955	-83
705164	-79
705374	-79
705581	-112
705811	-78
706051	-74
706278	-115
706509	-69
706730	-65
706945	-125
707143	-102
707347	-76
707562	-83
707777	-142
707978	-155
708211	-126
708460	-156
708706	-149
708959	-148
709210	-131
709463	-138
709703	-158
709921	-94
710144	-83
710387	-75
710619	-74
710837	-45
711044	-54
711232	-105
711418	-64
711606	-45
711790	-122
711986	-91
712210	-118
712444	-134
712659	-206
712872	-152
713095	-122
713312	-184
713522	-177
713735	-199
713957	-142
714165	-159
714375	-127
714603	-129
714837	-107
715055	-120
715288	-94
715519	-89
715751	-61
715976	-112
716200	-82
716440	-80
716666	-115
716885	-100
717117	-79
717344	-113
717543	-158
717749	-145
717963	-141
718168	-224
718373	-173
718589	-147
718800	-203
718999	-203
719205	-162
719413	-174
719610	-213
719814	-188
720030	-209
720228	-206
720448	-129
720690	-97
720937	-79
721163	-104
721402	-82
721635	-98
721863	-116
722075	-173
722294	-113
722521	-93
722752	-141
722964	-202
723192	-159
723433	-180
723666	-193
723879	-184
724102	-130
724328	-111
724544	-129
724765	-87
724997	-71
725231	-64
725438	-47
725646	-71
725859	-102
726057	-109
726274	-82
726500	-87
726718	-127
726936	-80
727173	-78
727388	-125
727609	-78
727843	-109
728076	-126
728289	-169
728513	-151
728730	-153
728930	-127
729135	-83
729345	-85
729548	-97
729778	-101
730024	-87
730255	-115
730488	-58
730721	-46
730933	-80
731165	-53
731417	-58
731665	-79
731892	-133
732120	-94
732332	-123
732525	-175
732716	-142
732914	-123
733116	-134
733311	-120
733530	-130
733744	-104
733942	-102
734157	-85
734386	-85
734613	-94
734847	-54
735085	-61
735310	-76
735514	-68
735725	-45
735945	-74
736157	-129
736358	-102
736559	-116
736761	-137
736951	-133
737146	-142
737339	-184
737561	-163
737788	-147
738008	-210
738216	-169
738442	-141
738657	-136
738876	-119
739098	-133
739303	-145
739512	-112
739741	-78
739967	-76
740169	-118
740379	-96
740585	-169
740773	-209
740977	-89
741176	-115
741362	-185
741554	-147
741773	-142
741986	-166
742181	-203
742390	-140
742619	-142
742846	-120
743059	-112
743281	-76
743508	-69
743724	-76
743927	-54
744127	-35
744336	-29
744548	-58
744742	-86
744941	-64
745138	-100
745336	-163
745528	-98
745735	-94
745960	-116
746172	-173
746387	-131
746594	-131
746781	-193
746967	-167
747155	-131
747347	-127
747529	-130
747715	-152
747903	-131
748105	-94
748306	-86
748543	-83
748779	-27
748996	-17
749212	13
749440	-40
749646	-75
749862	-65
750080	-101
750280	-181
750474	-156
750664	-142
750863	-163
751053	-228
751239	-198
751431	-189
751634	-167
751825	-167
752022	-126
752220	-101
752405	-133
752591	-127
752773	-105
752953	-76
753133	-71
753315	-69
753509	-67
753708	-123
753888	-111
754072	-94
754253	-127
754431	-180
754607	-133
754783	-123
754971	-101
755154	-158
755331	-169
755521	-147
755718	-115
755929	-149
756146	-174
756357	-151
756586	-123
756810	-158
757030	-151
757244	-100
757470	-69
757689	-74
757896	-107
758110	-49
758347	-38
758584	-58
758807	-94
759039	-75
759268	-126
759469	-145
759671	-112
759863	-149
760050	-155
760260	-130
760502	-144
760728	-109
760932	-85
761148	-31
761372	-58
761600	-51
761829	-43
762061	-42
762292	-13
762503	-80
762711	-36
762933	-56
763161	-34
763377	-38
763583	-113
763792	-104
764004	-112
764229	-130
764446	-164
764652	-142
764864	-158
765075	-160
765275	-156
765482	-129
765686	-145
765890	-164
766083	-177
766284	-122
766497	-119
766722	-104
766929	-115
767135	-38
767350	-35
767574	-46
767783	-85
767980	-113
768184	-94
768384	-131
768591	-145
768787	-169
768985	-160
769178	-174
769370	-200
769558	-155
769757	-136
769966	-101
770161	-105
770370	-83
770587	-80
770788	-130
770999	-116
771208	-119
771399	-97
771598	-60
771787	-74
771970	-93
772170	-63
772375	-67
772569	-138
772754	-108
772944	-98
773127	-126
773304	-145
773490	-111
773680	-108
773878	-133
774059	-159
774249	-130
774456	-137
774663	-118
774873	-131
775074	-153
775292	-147
775519	-116
775730	-137
775943	-94
776146	-123
776330	-151
776512	-136
776687	-140
776863	-140
777031	-184
777198	-195
777375	-138
777562	-118
777755	-118
777951	-69
778135	-82
778316	-86
778492	-130
778669	-173
778841	-129
779014	-65
779186	-138
779365	-118
779554	-138
779774	-163
779994	-116
780230	-93
780479	-71
780714	-109
780918	-119
781121	-104
781341	-101
781568	-129
781788	-133
781987	-171
782183	-119
782383	-133
782602	-107
782811	-97
783008	-116
783198	-82
783382	-79
783558	-67
783735	-68
783910	-112
784080	-136
784264	-98
784454	-80
784642	-116
784833	-85
785038	-82
785243	-105
785438	-72
785638	-79
785843	-93
786038	-164
786230	-144
786428	-163
786629	-167
786816	-214
787006	-170
787205	-134
787391	-187
787573	-160
787774	-109
787981	-89
788170	-129
788365	-80
788557	-129
788735	-137
788915	-107
789098	-96
789288	-69
789467	-127
789647	-83
789836	-100
790021	-96
790198	-156
790375	-119
790558	-107
790734	-149
790905	-137
791081	-122
791261	-138
791433	-169
791615	-171
791807	-181
791992	-207
792179	-211
792371	-171
792563	-134
792746	-122
792935	-120
793118	-58
793296	-56
793465	-58
793632	-68
793796	-49
793962	-72
794126	-49
794290	-57
794464	-42
794651	-24
794829	-49
795002	-158
795170	-156
795339	-129
795511	-141
795678	-175
795843	-173
796003	-162
796167	-108
796338	-120
796514	-158
796690	-178
796870	-152
797051	6
797227	12
797399	68
797573	30
797754	5
797941	-45
798122	-100
798297	-78
798480	-14
798673	8
798861	-35
799042	-27
799224	-25
799401	-102
799577	-104
799756	-122
799938	-122
800126	-137
800308	-174
800488	-151
800674	-108
800862	-101
801045	-104
801224	-105
801403	-82
801585	-87
801759	-123
801934	-130
802114	-126
802297	-144
802473	-187
802644	-153
802817	-126
802984	-207
803152	-192
803321	-174
803505	-149
803685	-148
803859	-140
804034	-136
804209	-189
804379	-199
804547	-207
804720	-193
804906	-175
805086	-169
805266	-162
805442	-142
805618	-156
805792	-164
805990	-148
806190	-163
806374	-155
806545	-115
806723	-153
806906	-180
807118	-202
807344	-180
807558	-187
807765	-140
807962	-198
808148	-207
808329	-235
808513	-213
808689	-207
808864	-193
809044	-163
809217	-198
809390	-182
809570	-156
809785	-123
810200	-85
810394	-100
810589	-78
810776	-83
810957	-94
811132	-85
811300	-82
811466	-80
811637	-86
811823	-40
812012	-79
812200	-116
812397	-86
812594	-115
812781	-130
812972	-119
813157	-125
813337	-141
813524	-140
813730	-196
813918	-203
814110	-162
814310	-126
814502	-163
814693	-142
814888	-131
815076	-131
815263	-112
815453	-79
815648	-60
815848	-71
816046	-97
816229	-129
816419	-101
816606	-96
816788	-144
816969	-116
817159	-82
817347	-127
817529	-149
817722	-137
817915	-131
818108	-171
818302	-153
818510	-152
818709	-156
818909	-188
819108	-189
819309	-133
819500	-162
819688	-130
819879	-111
820079	-105
820278	-98
820465	-113
820661	-101
820856	-120
821045	-138
821237	-87
821439	-36
821636	-76
821823	-89
822020	-85
822216	-94
822404	-164
822595	-147
822790	-145
822991	-152
823182	-188
823375	-156
823566	-173
823752	-189
823947	-120
824138	-107
824322	-119
824524	-78
824719	0
824901	-72
825088	-65
825265	-120
825439	-90
825616	-96
825793	-113
825965	-142
826140	-123
826327	-82
826514	-85
826694	-173
826882	-140
827076	-115
827278	-98
827470	-167
827663	-145
827856	-144
828037	-200
828213	-204
828399	-177
828607	-170
828807	-160
829009	-145
829201	-144
829398	-107
829592	-63
829781	-50
829955	-89
830129	-89
830310	-34
830486	-10
830652	-177
830823	-137
830998	-94
831172	-97
831343	-113
831525	-68
831715	-58
831903	-80
832084	-116
832271	-104
832455	-98
832634	-163
832826	-142
833028	-163
833224	-148
833410	-173
833601	-160
833799	-147
834005	-112
834197	-133
834381	-100
834570	-85
834752	-109
834928	-91
835110	-107
835314	-63
835515	-115
835708	-96
835902	-65
836088	-79
836274	-137
836450	-149
836627	-125
836807	-123
836992	-153
837187	-134
837375	-174
837558	-156
837749	-147
837944	-127
838131	-159
838311	-148
838497	-112
838685	-100
838867	-109
839046	-94
839229	-69
839413	-100
839595	-145
839788	-112
839992	-76
840212	-112
840421	-141
840626	-144
840838	-105
841049	-141
841246	-156
841444	-125
841647	-116
841841	-148
842027	-169
842216	-136
842431	-136
842635	-159
842823	-191
843010	-155
843199	-123
843393	-118
843577	-119
843768	-60
843964	-65
844157	-108
844339	-156
844533	-89
844731	-89
844923	-144
845102	-174
845285	-147
845465	-131
845646	-134
845821	-171
845999	-151
846186	-137
846366	-152
846537	-182
846723	-145
846905	-145
847084	-140
847264	-133
847451	-112
847636	-130
847820	-119
848016	-96
848211	-78
848399	-116
848595	-91
848796	-107
848981	-144
849174	-101
849369	-91
849551	-171
849732	-80
849906	-68
850074	-54
850254	-107
850433	-115
850624	-100
850817	-151
851009	-182
851208	-123
851408	-113
851603	-112
851805	-105
852006	-58
852193	-25
852388	-6
852589	-35
852785	-58
852980	-46
853187	-75
853389	-158
853590	-120
853793	-86
853999	-67
854193	-125
854391	-78
854594	-79
854794	-140
855193	-94
855396	-131
855587	-174
855783	-137
855978	-130
856171	-156
856350	-142
856531	-96
856721	-74
856903	-105
857086	-68
857283	-71
857487	-122
857682	-160
857875	-129
858073	-86
858263	-87
858442	-144
858622	-83
858812	-80
858999	-116
859181	-127
859376	-97
859579	-120
859767	-145
859952	-126
860144	-101
860333	-144
860512	-169
860699	-83
860890	-94
861075	-120
861266	-94
861480	-97
861702	-140
861914	-175
862128	-97
862336	-83
862532	-131
862725	-86
862922	-76
863107	-166
863292	-133
863485	-105
863671	-180
863850	-140
864038	-131
864229	-147
864409	-185
864610	-142
864825	-108
865037	-129
865236	-112
865449	-107
865658	-96
865851	-138
866049	-98
866243	-102
866431	-133
866625	-83
866820	-53
867005	-80
867203	-51
867413	-35
867614	-122
867812	-76
868019	-69
868222	-151
868414	-140
868608	-96
868794	-138
868971	-166
869155	-133
869339	-162
869516	-209
869701	-164
869892	-119
870077	-129
870270	-101
870457	-80
870628	-131
870798	-220
870971	-53
871141	-56
871306	-112
871473	-69
871642	-27
871808	-54
871971	-69
872136	-86
872294	-158
872451	-125
872607	-152
872763	-220
872923	-209
873079	-203
873241	-187
873411	-160
873580	-93
873740	-211
873894	-155
874047	-189
874203	-104
874362	-133
874526	-145
874694	-131
874863	-125
875037	-97
875238	-85
875436	-58
875631	-102
875832	-125
876027	-101
876211	-137
876391	6
876567	-69
876733	-177
876901	13
877064	-25
877232	-127
877397	-198
877567	-202
877765	-163
877970	-147
878179	-148
878389	-177
878597	-152
878809	-137
879028	-141
879236	-155
879430	-115
879634	-91
879842	-100
880041	-130
880234	-100
880440	-107
880653	-101
880867	-72
881073	-102
881288	-75
881503	-107
881709	-151
881900	-160
882098	-107
882299	-111
882504	-175
882701	-182
882914	-144
883127	-138
883333	-164
883538	-133
883754	-120
883965	-164
884168	-122
884379	-64
884589	-65
884800	-102
885019	-68
885246	-54
885480	-71
885696	-127
885909	-78
886120	-60
886329	-105
886525	-108
886727	-63
886917	-177
887107	-178
887311	-140
887518	-149
887713	-178
887925	-125
888141	-107
888341	-122
888546	-101
888752	-136
888957	-104
889158	-133
889351	-127
889557	-107
889769	-79
889964	-113
890160	-57
890360	-86
890548	-140
890748	-90
890951	-75
891144	-133
891341	-111
891543	-90
891752	-148
891950	-160
892163	-137
892384	-116
892597	-138
892815	-93
893040	-100
893249	-101
893469	-65
893685	-61
893882	-145
894069	-145
894261	-47
894453	-82
894641	-49
894846	-68
895046	-127
895239	-96
895443	-80
895654	-108
895866	-170
896066	-158
896269	-98
896467	-108
896652	-126
896840	-85
897033	-91
897235	-97
897434	-100
897638	-85
897843	-105
898039	-152
898237	-104
898434	-91
898625	-239
898810	-173
899004	-68
899198	-68
899382	-148
899564	-134
899761	-98
900171	-159
900370	-131
900570	-113
900776	-116
900972	-149
901169	-91
901370	-79
901567	-100
901758	-127
901948	-105
902139	-85
902333	-129
902528	-126
902741	-109
902956	-130
903174	-83
903397	-42
903621	-28
903831	-115
904048	-85
904275	-100
904502	-134
904709	-213
904925	-145
905140	-130
905360	-162
905582	-130
905820	-129
906065	-116
906301	-147
906518	-129
906735	-104
906945	-129
907159	-101
907374	-75
907585	-164
907786	-122
908006	-87
908218	-173
908416	-158
908617	-111
908820	-118
909010	-170
909205	-109
909397	-184
909577	-231
909768	-185
909959	-203
910151	-249
910354	-196
910555	-203
910749	-232
910955	-162
911159	-136
911352	-148
911549	-96
911742	-102
911921	-134
912097	-119
912271	-64
912449	-60
912624	-140
912806	-102
912996	-67
913178	-96
913352	-158
913533	-122
913716	-125
913896	-199
914079	-198
914274	-160
914471	-199
914654	-224
914846	-202
915046	-192
915238	-215
915425	-162
915618	-142
915810	-174
915999	-159
916209	-85
916414	-78
916605	-64
916808	-18
917009	-64
917199	-76
917394	-6
917588	-40
917776	-125
917960	-105
918157	-65
918356	-108
918547	-122
918750	-78
918954	-89
919147	-108
919341	-98
919549	-86
919748	-127
919947	-112
920156	-87
920358	-127
920556	-115
920762	-79
920968	-94
921166	-149
921369	-111
921574	-115
921774	-149
921965	-112
922159	-83
922346	-153
922527	-131
922726	-98
922911	-159
923102	-142
923287	-198
923464	-211
923640	-178
923809	-164
923989	-149
924184	-142
924366	-167
924547	-120
924741	-79
924943	-80
925153	-68
925353	-118
925554	-112
925765	-107
925974	-89
926191	-69
926391	-115
926591	-87
926802	-76
927011	-80
927211	-148
927408	-107
927624	-116
927839	-180
928038	-233
928240	-182
928450	-166
928662	-133
928859	-141
929051	-125
929250	-111
929451	-89
929647	-118
929838	-107
930046	-76
930259	-67
930472	-134
930673	-111
930887	-80
931106	-97
931307	-167
931506	-115
931708	-109
931914	-134
932108	-167
932313	-113
932520	-137
932713	-214
932912	-155
933111	-126
933307	-134
933496	-167
933687	-138
933887	-131
934096	-138
934288	-196
934482	-120
934685	-85
934886	-90
935078	-116
935277	-78
935469	-101
935653	-137
935844	-86
936038	-89
936224	-171
936403	-184
936586	-142
936781	-160
936980	-196
937172	-191
937381	-167
937593	-162
937801	-204
938002	-159
938217	-134
938436	-108
938643	-133
938857	-87
939073	-85
939284	-126
939489	-93
939687	-34
939870	-169
940055	-104
940233	-122
940412	-125
940593	-61
940774	-89
940949	-29
941133	-40
941316	-115
941489	-142
941659	-148
941843	-113
942026	-105
942200	-101
942391	-76
942605	-71
942813	-87
943026	-96
943227	-100
943429	-90
943642	-86
943864	-54
944088	-101
944313	-107
944518	-136
944717	-89
944915	-50
945108	-97
945288	-151
945477	-127
945689	-113
945911	-90
946109	-134
946311	-111
946518	-119
946719	-158
946921	-133
947133	-93
947336	-93
947529	-125
947734	-93
947941	-34
948138	-129
948325	-109
948513	-36
948702	-42
948884	-104
949078	-100
949272	-71
949469	-127
949664	-160
949873	-125
950079	-127
950279	-184
950471	-181
950671	-158
950867	-155
951062	-203
951253	-203
951454	-170
951654	-155
951848	-175
952049	-120
952256	-83
952468	-58
952673	-120
952880	-87
953094	-89
953300	-158
953496	-115
953696	-101
953887	-174
954075	-144
954270	-111
954465	-175
954652	-189
954853	-138
955051	-160
955241	-225
955441	-171
955647	-166
955841	-203
956033	-169
956236	-137
956438	-127
956625	-137
956819	-108
957018	-86
957211	-129
957395	-122
957591	-64
957785	-68
957975	-142
958164	-80
958360	-80
958554	-148
958742	-122
958935	-72
959126	-120
959311	-171
959504	-138
959706	-122
959898	-142
960080	-207
960265	-180
960454	-145
960648	-149
960832	-187
961011	-156
961197	-115
961390	-102
961571	-43
961744	-24
961913	-10
962077	-64
962239	-86
962402	-148
962560	-180
962720	-61
962880	-32
963044	-115
963213	-109
963395	-85
963583	-82
963778	-85
963961	-142
964140	-74
964329	-42
964534	-56
964747	-89
964951	-126
965166	-93
965390	-80
965620	-87
965841	-164
966050	-126
966262	-127
966463	-160
966663	-112
966875	-104
967094	-91
967296	-162
967509	-64
967727	-72
967948	-89
968161	-169
968370	-105
968586	-108
968807	-116
969043	-134
969258	-191
969472	-140
969696	-155
969927	-153
970158	-167
970382	-137
970609	-105
970837	-97
971044	-138
971258	-64
971475	-51
971673	-127
971872	-51
972079	-49
972281	-149
972476	-116
972688	-78
972886	-153
973076	-149
973272	-94
973456	-164
973633	-188
973812	-148
973993	-193
974171	-195
974361	-178
974554	-214
974736	-192
974929	-140
975124	-123
975317	-158
975507	-111
975716	-54
975925	-71
976135	-91
976334	-174
976535	-102
976737	-97
976934	-86
977119	-159
977302	-107
977491	-118
977674	-144
977866	-145
978061	-134
978257	-138
978441	-199
978620	-159
978802	-130
978975	-141
979144	-140
979319	-113
979494	-115
979671	-193
979847	-206
980040	-166
980242	-111
980445	-94
980644	-94
980852	-40
981055	-98
981246	-105
981441	-42
981631	-34
981813	-127
981986	-236
982160	-175
982351	-134
982553	-119
982744	-122
982924	-166
983105	-125
983294	-127
983493	-112
983682	-149
983863	-148
984044	-164
984226	-173
984418	-136
984634	-133
984842	-113
985049	-119
985249	-57
985446	-10
985635	-97
985810	-137
985984	-79
986153	-58
986328	-74
986512	-130
986693	-104
986884	-83
987079	-116
987283	-163
987488	-184
987675	-255
987858	-228
988042	-188
988244	-160
988440	-166
988626	-153
988824	-93
989024	-76
989223	-80
989411	-144
989594	-125
989779	-68
990148	-180
990328	-142
990518	-101
990710	-53
990884	-69
991054	-72
991220	-90
991381	-113
991539	-119
991702	-112
991863	-91
992028	-58
992186	-96
992340	-148
992496	-155
992654	-164
992809	-196
992964	-180
993121	-164
993279	-152
993433	-178
993586	-215
993740	-184
993898	-136
994067	-122
994241	-184
994411	-169
994587	-111
994764	-96
994945	-169
995123	-167
995306	-118
995493	-100
995683	-173
995864	-164
996054	-108
996249	-100
996445	-169
996633	-175
996822	-148
997013	-152
997196	-187
997375	-147
997564	-91
997762	-101
997941	-151
998117	-93
998290	-78
998457	-34
998625	-38
998801	-74
998976	-123
999157	-89
999341	-71
999524	-142
999706	-120
999902	-43
1000099	-16
1000295	-111
1000488	-80
1000691	-49
1000903	-105
1001106	-166
1001321	-145
1001541	-138
1001752	-108
1001967	-101
1002180	-155
1002379	-127
1002585	-98
1002795	-104
1002989	-144
1003194	-83
1003401	-79
1003597	-141
1003799	-14
1003988	1
1004163	-83
1004335	-40
1004510	-50
1004691	-112
1004867	-155
1005055	-119
1005251	-149
1005449	-198
1005653	-158
1005872	-107
1006073	-144
1006272	-119
1006480	-100
1006683	-108
1006874	-120
1007092	-82
1007319	-94
1007538	-119
1007753	-86
1007974	-90
1008192	-122
1008395	-120
1008599	-46
1008794	-34
1008975	-90
1009160	-38
1009344	-43
1009541	-112
1009730	-120
1009933	-65
1010149	-75
1010366	-115
1010571	-148
1010792	-102
1011031	-104
1011272	-90
1011508	-131
1011724	-129
1011944	-119
1012158	-137
1012354	-156
1012545	-101
1012742	-68
1012944	-74
1013150	-115
1013360	-91
1013580	-90
1013806	-122
1014026	-113
1014236	-167
1014449	-141
1014662	-159
1014861	-188
1015046	-235
1015234	-177
1015423	-163
1015610	-215
1015795	-173
1015981	-108
1016156	-125
1016328	-137
1016499	-125
1016682	-126
1016892	-74
1017087	-75
1017271	-113
1017445	-87
1017624	-71
1017799	-96
1017986	-109
1018181	-85
1018363	-83
1018542	-83
1018713	-78
1018878	-177
1019046	-118
1019211	-101
1019387	-130
1019558	-148
1019731	-152
1019901	-171
1020074	-185
1020252	-202
1020418	-228
1020593	-130
1020761	-188
1020937	-199
1021109	-134
1021283	-163
1021450	-188
1021618	-184
1021786	-155
1021951	-182
1022114	-140
1022272	-72
1022429	-29
1022584	-25
1022736	-69
1022887	-152
1023038	-174
1023202	-82
1023368	-145
1023527	-148
1023693	-138
1023876	-130
1024088	-144
1024308	-167
1024508	-195
1024731	-138
1024966	-136
1025180	-193
1025394	-174
1025618	-182
1025819	-221
1026016	-189
1026238	-164
1026472	-97
1026696	-137
1026917	-80
1027147	-40
1027378	-102
1027597	-94
1027831	-49
1028048	-102
1028247	-159
1028445	-113
1028653	-102
1028848	-195
1029045	-175
1029255	-156
1029470	-198
1029665	-192
1029868	-174
1030071	-170
1030258	-199
1030442	-306
1030627	-210
1030801	-246
1030969	-277
1031142	-85
1031314	-65
1031497	-76
1031667	-87
1031841	-64
1032031	-78
1032220	-91
1032411	-85
1032600	-119
1032782	-134
1032968	-119
1033157	-100
1033345	-93
1033534	-93
1033729	-94
1033925	-112
1034121	-79
1034314	-91
1034495	-119
1034672	-122
1034855	-129
1035041	-151
1035224	-149
1035402	-166
1035582	-136
1035753	-63
1035925	-20
1036092	-49
1036251	-24
1036406	-86
1036559	-87
1036711	-91
1036862	-34
1037013	-58
1037170	-136
1037326	-149
1037489	-133
1037660	-113
1037839	-140
1038015	-188
1038191	-137
1038377	-98
1038563	-101
1038747	-137
1038926	-123
1039112	-101
1039310	-108
1039499	-120
1039681	-107
1039871	-90
1040065	-101
1040256	-127
1040443	-104
1040640	-50
1040842	-36
1041039	-87
1041225	-100
1041413	-82
1041597	-90
1041787	-104
1041972	-166
1042153	-136
1042337	-141
1042527	-149
1042716	-171
1042895	-204
1043070	-100
1043247	-28
1043421	-80
1043589	-87
1043754	-71
1043919	-25
1044085	-63
1044257	-136
1044430	-158
1044597	-177
1044765	-159
1044930	-115
1045091	-80
1045247	8
1045400	42
1045550	6
1045697	-90
1045841	-56
1045985	423
1046127	1072
1046267	824
1046411	569
1046562	388
1046735	216
1046923	33
1047129	-82
1047313	-136
1047491	-119
1047687	-148
1047872	767
1048047	436
1048216	154
1048378	19
1048537	271
1048692	20
1048843	-309
1048990	-211
1049136	-25
1049280	22
1049423	74
1049565	5
1049704	-23
1049843	-240
1049979	-64
1050116	-269
1050251	-229
1050386	-335
1050517	-316
1050649	-399
1050780	-422
1050910	-470
1051039	-519
1051168	-477
1051296	-428
1051422	-389
1051550	-503
1051676	-476
1051801	-333
1051925	-339
1052049	-257
1052174	-261
1052306	-229
1052438	-211
1052574	-221
1052747	-195
1052904	-355
1053051	-148
1053194	-142
1053342	-279
1053486	-209
1053632	-284
1053779	-253
1053943	-235
1054101	-129
1054256	-202
1054408	-126
1054557	-207
1054703	-156
1054849	-45
1055001	-27
1055152	-34
1055314	-34
1055465	-58
1055611	-85
1055757	-131
1055900	-169
1056040	-210
1056180	-277
1056320	-226
1056467	-309
1056616	-225
1056773	-87
1056926	-397
1057074	-260
1057220	-378
1057367	-266
1057517	-159
1057666	-199
1057816	-188
1057967	-192
1058114	-200
1058262	-193
1058410	-180
1058555	-134
1058698	-35
1058838	-109
1058977	-109
1059113	31
1059248	-47
1059381	-123
1059514	-47
1059647	-64
1059782	-142
1059916	-188
1060060	-118
1060216	-192
1060375	-199
1060547	-137
1060717	-167
1060886	-238
1061053	-193
1061219	-131
1061376	-137
1061529	-97
1061675	-301
1061820	-264
1061961	-115
1062100	-273
1062240	-164
1062380	-142
1062526	-112
1062668	-116
1062810	-109
1062955	-72
1063102	-109
1063246	-105
1063390	-82
1063533	-16
1063675	-104
1063816	-75
1063956	6
1064097	-20
1064239	-24
1064379	-5
1064518	23
1064660	81
1064802	42
1064943	16
1065086	-140
1065228	-67
1065373	-76
1065519	-98
1065670	-246
1065823	-192
1065970	-89
1066119	-13
1066269	-181
1066417	-47
1066564	-57
1066716	-101
1066864	-53
1067010	-93
1067153	-43
1067293	-56
1067431	-91
1067567	-75
1067701	-14
1067832	-65
1067963	-162
1068094	-148
1068225	-74
1068355	-137
1068493	-204
1068628	-224
1068770	-249
1068919	-189
1069073	-160
1069229	-211
1069378	-90
1069523	-130
1069663	-231
1069801	-215
1069937	-275
1070074	-260
1070217	-90
1070365	-122
1070518	-229
1070666	-147
1070824	-137
1070983	-123
1071136	-5
1071284	-112
1071430	11
1071576	-14
1071727	41
1071877	-67
1072024	-75
1072178	6
1072328	-18
1072474	-100
1072621	-134
1072765	-31
1072911	15
1073064	48
1073219	-85
1073367	-177
1073512	-145
1073658	-142
1073802	-162
1073946	-28
1074095	-45
1074239	-56
1074388	-63
1074544	-93
1074709	-49
1074879	-76
1075042	-118
1075203	-141
1075361	-122
1075526	-145
1075690	-177
1075850	-18
1076003	-63
1076159	-50
1076317	-76
1076480	-21
1076636	-90
1076796	-80
1076956	-91
1077122	-47
1077281	-90
1077437	-18
1077594	-58
1077747	-102
1077897	-142
1078052	-76
1078211	-49
1078372	-109
1078538	-137
1078709	-119
1078875	-118
1079033	-162
1079186	-136
1079335	-255
1079483	-217
1079640	-269
1079796	-229
1080121	-182
1080275	-178
1080423	-147
1080570	-162
1080717	-104
1080860	-122
1081004	-126
1081153	-116
1081309	-72
1081458	42
1081619	-27
1081780	-42
1081935	-51
1082087	-86
1082246	-111
1082397	-116
1082556	-29
1082727	-65
1082896	-131
1083059	-38
1083221	20
1083384	-25
1083541	0
1083713	-47
1083884	-40
1084055	-105
1084223	-96
1084385	-174
1084549	-129
1084719	-173
1084884	-156
1085049	-141
1085214	-240
1085374	-211
1085530	-162
1085692	-210
1085852	-164
1086020	-51
1086189	8
1086350	-147
1086512	-116
1086678	-78
1086848	12
1087011	-23
1087173	-5
1087336	-5
1087498	-25
1087660	-43
1087818	-63
1087970	-105
1088121	-10
1088273	150
1088436	198
1088599	104
1088766	-36
1088935	24
1089101	24
1089264	-123
1089421	-217
1089577	-260
1089731	-277
1089894	-298
1090064	-199
1090230	-287
1090391	-269
1090549	-284
1090710	-180
1090865	-144
1091023	-82
1091182	-53
1091348	-162
1091504	-153
1091663	-64
1091841	-63
1092014	-45
1092186	-149
1092351	-126
1092513	-187
1092675	-217
1092842	-198
1093015	-246
1093187	-196
1093361	-131
1093541	-178
1093711	-142
1093888	-78
1094061	-149
1094230	-254
1094391	-324
1094550	-215
1094711	-260
1094866	-295
1095018	-221
1095171	-210
1095346	-113
1095522	-119
1095698	-72
1095866	-112
1096031	93
1096190	-18
1096347	-20
1096507	-42
1096659	93
1096816	84
1096976	78
1097144	-14
1097326	-83
1097498	-97
1097664	-155
1097830	-182
1097996	-182
1098167	-228
1098342	-195
1098509	-207
1098675	-255
1098839	-209
1099006	-156
1099171	-83
1099332	-108
1099490	-93
1099645	-109
1099797	-181
1099946	-98
1100092	-116
1100240	-126
1100398	-97
1100566	-105
1100742	-57
1100915	-50
1101081	-57
1101253	-13
1101423	20
1101589	23
1101750	-40
1101909	-137
1102065	-217
1102219	-193
1102376	-91
1102537	-122
1102693	-93
1102844	-115
1102993	-127
1103141	-83
1103287	-67
1103431	-147
1103576	-266
1103723	-220
1103871	-221
1104018	-130
1104163	-119
1104311	-100
1104456	-31
1104601	-24
1104744	-51
1104884	-20
1105023	-14
1105160	-10
1105298	81
1105439	-85
1105578	-164
1105715	-60
1105852	-98
1105988	-12
1106122	157
1106256	150
1106388	27
1106521	-232
1106652	-148
1106782	-123
1106912	-115
1107042	-138
1107171	-102
1107299	-144
1107427	-125
1107557	-331
1107687	-199
1107818	-209
1107953	-210
1108092	-381
1108225	-188
1108356	16
1108486	23
1108615	42
1108747	104
1108877	-80
1109006	-136
1109134	-31
1109265	-53
1109404	-10
1109547	46
1109687	2
1109826	-16
1109965	-35
1110103	-93
1110236	-79
1110371	24
1110508	45
1110647	2
1110786	-5
1110924	-36
1111061	-98
1111196	-97
1111331	-254
1111465	-220
1111605	-108
1111758	-130
1111907	-125
1112062	-295
1112214	-181
1112361	-291
1112506	-222
1112653	-192
1112806	-90
1112958	-64
1113104	-228
1113249	-78
1113391	-228
1113529	-97
1113666	-98
1113802	-76
1113937	-140
1114076	-129
1114213	-87
1114356	-69
1114512	-3
1114660	132
1114804	63
1114952	209
1115099	252
1115246	281
1115391	143
1115533	-6
1115682	-16
1115846	-96
1116009	-85
1116168	-67
1116325	-254
1116475	-243
1116621	-188
1116764	-144
1116905	-213
1117043	-240
1117179	-221
1117313	-193
1117446	-138
1117577	-152
1117707	-138
1117839	-127
1117973	6
1118109	-56
1118244	-25
1118380	-93
1118516	-147
1118670	-75
1118828	-72
1119000	-187
1119157	-144
1119325	-75
1119489	-122
1119643	-149
1119792	-125
1119938	-105
1120084	-51
1120231	-145
1120376	-57
1120536	-204
1120697	-164
1120876	-214
1121056	-149
1121238	-175
1121413	-133
1121588	-86
1121752	-136
1121913	-115
1122073	-123
1122223	97
1122380	-67
1122530	-153
1122681	-58
1122845	-34
1123014	-133
1123183	-38
1123354	-40
1123521	-101
1123691	-127
1123858	-141
1124028	-31
1124192	-17
1124354	-97
1124511	-87
1124667	-174
1124820	-142
1125116	-200
1125267	-123
1125417	-1046
1125565	-951
1125712	-724
1125859	-470
1126009	-436
1126157	-457
1126304	-309
1126452	-338
1126618	-224
1126786	-382
1126948	-322
1127118	-283
1127286	-258
1127457	8
1127627	-118
1127798	-35
1127971	39
1128143	-109
1128330	-35
1128542	-25
1128739	93
1128931	-7
1129111	82
1129280	50
1129446	6
1129609	1
1129772	-127
1129936	-100
1130100	-53
1130262	-75
1130426	-5
1130585	-24
1130748	-35
1130916	-69
1131083	-76
1131243	-112
1131398	-169
1131556	-90
1131724	-122
1131895	-105
1132061	-126
1132229	-68
1132401	-82
1132564	-152
1132720	-141
1132875	-69
1133031	-138
1133192	-85
1133359	-80
1133538	-64
1133713	-151
1133888	-149
1134056	-188
1134218	-140
1134374	-231
1134527	-337
1134679	-293
1134842	-224
1135009	-236
1135175	-192
1135367	-134
1135564	-253
1135743	-133
1135911	-196
1136070	-218
1136227	-102
1136390	-61
1136561	-64
1136766	-27
1136972	-67
1137180	-64
1137375	-169
1137554	-108
1137728	-65
1137898	-151
1138062	-130
1138226	-35
1138387	-96
1138542	-177
1138697	-32
1138861	-129
1139034	-98
1139210	-180
1139381	-6
1139560	-10
1139739	77
1139926	104
1140118	-58
1140300	-85
1140491	-43
1140683	-148
1140871	-145
1141063	-80
1141241	-160
1141408	-137
1141575	-42
1141740	-35
1141904	-67
1142062	-58
1142217	19
1142376	4
1142534	-25
1142692	-29
1142854	30
1143030	-80
1143196	-68
1143358	-27
1143529	-125
1143693	-89
1143858	-34
1144026	-83
1144191	-76
1144363	-119
1144539	-116
1144709	-122
1144883	-69
1145065	-236
1145244	-257
1145419	-149
1145600	-133
1145775	-142
1145942	-53
1146113	37
1146293	34
1146477	22
1146657	1
1146833	-40
1147007	-123
1147187	-125
1147361	-105
1147525	-86
1147686	-104
1147841	-79
1147995	-40
1148153	31
1148322	-101
1148489	-102
1148655	-65
1148817	34
1148982	-87
1149140	-43
1149295	35
1149450	106
1149602	28
1149755	95
1149916	66
1150081	-76
1150238	111
1150398	108
1150557	-46
1150719	-2
1150890	-67
1151061	-107
1151231	-257
1151394	-417
1151557	-243
1151721	-177
1151889	-297
1152050	-266
1152206	-258
1152360	-217
1152509	-155
1152657	-28
1152807	-31
1152955	-260
1153102	-105
1153253	-2
1153404	1
1153558	6
1153712	-46
1153864	-87
1154027	15
1154191	53
1154352	53
1154507	227
1154663	354
1154820	8
1154975	89
1155128	-68
1155280	-260
1155431	-173
1155578	-195
1155725	-20
1155873	-317
1156021	-191
1156179	96
1156357	-352
1156523	-389
1156706	-51
1156890	-136
1157066	-583
1157244	-141
1157424	19
1157601	-275
1157781	118
1157964	37
1158144	-232
1158327	35
1158503	42
1158671	-210
1158835	-12
1158992	-23
1159144	-32
1159293	-14
1159441	-105
1159595	-470
1159754	-377
1159934	-118
1160121	-64
1160307	-488
1160496	-239
1160694	-75
1160876	-452
1161068	-202
1161247	-127
1161417	-414
1161583	-58
1161744	-71
1161904	-275
1162059	-185
1162215	-130
1162375	-79
1162535	-239
1162688	-123
1162839	27
1162998	112
1163161	174
1163318	106
1163472	162
1163626	136
1163785	82
1163939	-75
1164098	-196
1164261	-141
1164433	-96
1164601	-20
1164768	-215
1164928	-149
1165094	-162
1165261	-125
1165429	-155
1165595	-181
1165763	-257
1165927	-253
1166093	-273
1166276	-407
1166445	-218
1166615	-235
1166777	-236
1166934	-191
1167085	-198
1167235	-173
1167385	-89
1167546	-140
1167713	-54
1167901	110
1168091	126
1168274	92
1168461	88
1168640	22
1168815	42
1168982	66
1169147	-217
1169306	-247
1169460	-196
1169622	-214
1169795	-319
1170154	-572
1170331	-400
1170515	-279
1170704	-495
1170898	-224
1171094	-400
1171286	-301
1171478	-333
1171661	-250
1171844	-35
1172025	199
1172202	340
1172376	168
1172541	166
1172707	180
1172874	169
1173064	165
1173245	276
1173415	264
1173581	281
1173745	-65
1173908	-74
1174066	-113
1174219	41
1174371	-83
1174527	-120
1174690	-360
1174853	-370
1175031	-31
1175217	-301
1175393	-512
1175578	-373
1175768	-311
1175951	-484
1176128	-443
1176303	-399
1176470	-451
1176633	-385
1176799	-198
1176958	-14
1177122	19
1177283	-68
1177449	-136
1177614	-111
1177778	-145
1177940	-39
1178098	-125
1178252	-71
1178403	-116
1178551	-141
1178702	-188
1178852	-284
1178999	-242
1179145	-196
1179289	-123
1179434	6
1179581	-63
1179727	20
1179875	89
1180021	46
1180165	74
1180314	46
1180478	55
1180647	-222
1180808	-276
1180981	-160
1181155	-159
1181329	-326
1181483	-276
1181643	-353
1181802	-430
1181968	-342
1182131	-392
1182291	-265
1182451	-141
1182610	-240
1182766	-199
1182919	-243
1183072	-178
1183222	-242
1183369	-148
1183515	-108
1183662	-120
1183811	-36
1183959	-65
1184108	41
1184260	-34
1184422	-90
1184591	-89
1184763	-129
1184928	-10
1185092	49
1185262	-174
1185440	-115
1185609	-87
1185774	95
1185953	17
1186136	-238
1186313	-188
1186491	-149
1186671	-169
1186847	-338
1187016	-262
1187186	-213
1187359	-425
1187528	-393
1187694	-243
1187863	-166
1188030	-195
1188193	-123
1188367	-108
1188543	-145
1188722	-69
1188899	-17
1189075	-79
1189253	-138
1189428	23
1189598	-16
1189756	100
1189907	27
1190058	-71
1190207	-98
1190352	154
1190499	289
1190645	369
1190792	92
1190941	140
1191092	-35
1191243	-112
1191394	-169
1191545	-80
1191697	-158
1191845	-137
1191996	-90
1192152	-98
1192316	-82
1192483	-87
1192673	-109
1192852	-123
1193023	-152
1193201	-178
1193410	-182
1193592	-123
1193770	-85
1193966	-91
1194167	-68
1194347	-86
1194531	-90
1194722	-86
1194916	-45
1195134	-94
1195382	-131
1195637	-142
1195892	-137
1196140	-187
1196392	-170
1196643	-182
1196859	-178
1197081	-213
1197292	-196
1197509	-191
1197737	-145
1197948	-246
1198141	-346
1198331	-338
1198517	-239
1198701	-144
1198880	12
1199065	124
1199273	-10
1199503	-78
1199719	-131
1199947	4
1200174	50
1200410	-136
1200619	-233
1200813	-109
1200995	-249
1201167	-239
1201342	-74
1201517	-116
1201688	-80
1201869	-152
1202059	-163
1202240	-145
1202429	-38
1202612	-94
1202799	-67
1202991	-94
1203183	-46
1203365	-145
1203550	-178
1203749	-174
1203942	-164
1204135	-142
1204340	-169
1204523	-173
1204718	-145
1204930	-140
1205113	-164
1205298	-3
1205478	-127
1205651	-102
1205826	-151
1206007	-192
1206189	-243
1206381	-235
1206564	-228
1206735	-202
1206904	-170
1207076	-260
1207244	-264
1207410	-253
1207607	-129
1207860	-51
1208119	-50
1208336	-51
1208529	-29
1208703	-35
1208871	-61
1209038	-115
1209297	-113
1209514	-98
1209720	-94
1209933	-142
1210130	-182
1210330	-113
1210539	-97
1210730	-155
1210925	-123
1211130	-87
1211345	-151
1211572	-94
1211786	-97
1211978	-125
1212179	-96
1212381	-89
1212567	-167
1212755	-189
1212963	-188
1213174	-200
1213373	-203
1213598	-144
1213799	-147
1213994	-136
1214178	-107
1214352	-91
1214534	-136
1214713	-130
1214905	-111
1215108	-98
1215303	-126
1215523	-120
1215749	-53
1215950	-123
1216159	-177
1216351	-215
1216529	-63
1216703	136
1216872	5
1217043	44
1217222	68
1217397	24
1217577	12
1217751	-32
1217925	-49
1218103	-45
1218290	-29
1218466	-105
1218643	-12
1218826	-36
1219001	-104
1219176	-163
1219359	-122
1219541	-136
1219710	-118
1219881	-47
1220051	27
1220213	-141
1220380	-116
1220547	-94
1220713	-244
1220883	-113
1221047	-192
1221224	-87
1221401	-192
1221574	-126
1221746	-159
1221928	-144
1222141	-210
1222350	-224
1222555	-210
1222764	-181
1222973	-123
1223172	-195
1223371	-120
1223559	-181
1223745	-123
1223931	-138
1224108	-82
1224286	-67
1224462	-28
1224639	-163
1224817	-75
1224994	-170
1225171	-177
1225341	-180
1225514	-16
1225686	-134
1225852	-102
1226020	-118
1226195	-93
1226374	-268
1226545	-305
1226725	-184
1226907	-138
1227080	-187
1227250	-108
1227418	-122
1227580	-43
1227744	-82
1227906	-90
1228075	-9
1228248	-140
1228426	-178
1228608	17
1228787	-72
1228962	-47
1229138	-35
1229318	-125
1229497	-222
1229674	-144
1229848	-198
1230023	-330
1230195	-85
1230371	-105
1230545	-78
1230724	-75
1230910	-112
1231091	-120
1231271	-156
1231454	-102
1231634	-79
1231818	-21
1231998	130
1232169	-76
1232339	-67
1232501	-46
1232665	12
1232828	8
1232992	-13
1233157	-113
1233322	-134
1233499	-159
1233676	-158
1233845	-175
1234015	-185
1234190	-240
1234359	-162
1234523	-280
1234685	-294
1234846	-283
1235006	-104
1235167	-192
1235328	-116
1235491	-80
1235651	-83
1235813	-28
1235972	19
1236133	-18
1236303	-24
1236478	-82
1236647	-56
1236829	0
1237026	0
1237233	-63
1237433	-32
1237639	-46
1237835	-89
1238024	-63
1238212	-63
1238388	-76
1238560	-89
1238736	-167
1238907	-232
1239084	-148
1239277	-130
1239465	-131
1239643	-148
1239828	-50
1240027	-12
1240210	-148
1240398	-57
1240594	-21
1240795	-32
1240979	-31
1241169	101
1241358	119
1241542	34
1241745	88
1241955	75
1242167	-58
1242388	-53
1242614	-75
1242828	-148
1243036	4
1243242	-31
1243446	-127
1243638	-136
1243836	-74
1244028	-151
1244211	-211
1244402	-67
1244597	-182
1244779	-242
1244967	-158
1245161	-231
1245345	-337
1245528	-326
1245718	-247
1245920	-188
1246106	-228
1246293	-225
1246469	-253
1246642	-226
1246810	-240
1246973	-188
1247135	-228
1247303	-181
1247519	-119
1247752	-94
1247972	-152
1248205	-75
1248435	-82
1248640	-180
1248846	-32
1249050	-42
1249246	-188
1249442	-116
1249646	-82
1249850	-175
1250046	-171
1250256	-61
1250454	-204
1250647	-105
1250844	-27
1251038	-152
1251224	-210
1251421	-27
1251616	-36
1251800	-198
1251992	-17
1252190	22
1252375	-182
1252551	-14
1252724	-36
1252892	-39
1253062	-5
1253234	-217
1253411	-94
1253610	-49
1253808	-181
1254001	-167
1254229	-83
1254467	-82
1254677	-210
1254892	-38
1255114	-17
1255313	-119
1255512	-9
1255719	34
1255914	-89
1256112	0
1256333	-14
1256529	-162
1256724	-76
1256917	1
1257110	-47
1257290	-236
1257474	-78
1257663	-46
1257857	-184
1258050	-120
1258256	-68
1258465	-80
1258658	-151
1258855	-69
1259046	-141
1259223	-316
1259394	-411
1259571	-242
1259766	-109
1260161	-79
1260349	-94
1260546	-82
1260745	-97
1260936	-170
1261120	-120
1261308	-58
1261498	-42
1261681	-169
1261867	-129
1262066	-68
1262270	-65
1262465	-158
1262665	-80
1262853	-301
1263032	-273
1263210	-148
1263380	-167
1263547	-131
1263712	-126
1263874	-64
1264046	-115
1264221	-151
1264395	-180
1264577	-49
1264753	-133
1264925	-133
1265100	-38
1265276	30
1265448	-107
1265614	-200
1265776	-279
1265941	-198
1266106	-181
1266278	-192
1266448	-182
1266614	-311
1266774	-233
1266931	-158
1267084	-286
1267236	-313
1267391	-250
1267587	-218
1267789	-239
1267997	-209
1268203	-175
1268424	-125
1268649	-126
1268879	-160
1269100	-134
1269317	-123
1269508	-191
1269701	-202
1269907	-265
1270094	-195
1270280	-134
1270461	90
1270639	63
1270811	-188
1270978	-342
1271146	-384
1271320	-338
1271502	-228
1271683	-180
1271861	-160
1272033	-107
1272201	-118
1272363	-193
1272526	-188
1272685	-158
1272845	-119
1273013	-162
1273176	-175
1273361	-69
1273556	-54
1273754	-76
1273952	-27
1274175	8
1274386	-29
1274587	5
1274784	-40
1274970	-61
1275150	-78
1275328	-14
1275503	-68
1275689	-3
1275903	-2
1276102	-82
1276322	-29
1276545	-125
1276746	-141
1276949	-160
1277140	-225
1277321	-249
1277505	-232
1277703	-257
1277885	-297
1278068	-225
1278255	-171
1278432	-195
1278615	-162
1278807	-90
1279002	-72
1279193	-20
1279395	11
1279601	-27
1279795	-115
1279991	-78
1280182	-86
1280367	-142
1280549	-138
1280737	-80
1280927	-69
1281115	-145
1281312	-108
1281507	-96
1281699	-151
1281883	-136
1282073	-82
1282262	-82
1282444	-105
1282627	-51
1282814	-45
1283001	-79
1283186	-78
1283377	-31
1283568	-18
1283751	-58
1283941	-36
1284137	-28
1284327	-90
1284512	-107
1284702	-113
1284893	-120
1285076	-152
1285260	-104
1285449	-105
1285633	-151
1285815	-151
1285992	-152
1286165	-130
1286351	-174
1286533	-277
1286714	-290
1286906	-244
1287101	-258
1287293	-355
1287483	-326
1287683	-238
1287887	-198
1288080	-260
1288278	-198
1288482	-136
1288683	-195
1288876	-192
1289078	-130
1289283	-156
1289477	-204
1289676	-123
1289878	-63
1290080	-113
1290271	-166
1290473	-120
1290679	-90
1290874	-158
1291067	-80
1291273	-47
1291482	-79
1291682	-182
1291887	-122
1292100	-86
1292306	-118
1292498	-87
1292687	108
1292865	-31
1293035	-118
1293202	-177
1293387	-104
1293586	-16
1293783	-61
1293973	-136
1294161	-188
1294356	-134
1294552	-127
1294736	-104
1294909	-151
1295081	-153
1295246	-187
1295408	-171
1295572	-166
1295736	-175
1295902	-46
1296083	55
1296267	39
1296454	12
1296642	39
1296823	-14
1297002	57
1297186	45
1297367	-10
1297546	-76
1297725	-16
1297904	15
1298093	-27
1298275	-129
1298453	-83
1298633	-120
1298803	-126
1298975	-155
1299150	-242
1299329	-192
1299510	-294
1299688	-395
1299868	-330
1300051	-247
1300228	-312
1300403	-193
1300576	-218
1300747	-204
1300916	-207
1301095	-182
1301281	-181
1301460	-166
1301650	-116
1301835	-109
1302014	-60
1302202	-75
1302399	-47
1302593	-67
1302779	-151
1302962	-140
1303145	-144
1303332	-129
1303511	-142
1303690	-119
1303875	-104
1304065	-134
1304249	-145
1304438	-87
1304625	-83
1304816	-164
1305003	-181
1305205	-149
1305411	-115
1305608	-167
1305802	-166
1305999	-136
1306197	-108
1306385	-160
1306579	-125
1306771	-125
1306964	-181
1307156	-127
1307355	-80
1307552	-122
1307741	-148
1307941	-123
1308143	-97
1308336	-158
1308540	-107
1308737	-67
1308927	-133
1309115	-96
1309308	-109
1309494	-188
1309679	-164
1309874	-137
1310066	-177
1310251	-207
1310449	-159
1310646	-133
1310833	-192
1311025	-127
1311218	-78
1311409	-123
1311593	-115
1311789	-69
1311975	-126
1312158	-173
1312335	-162
1312512	-126
1312698	-115
1312881	-151
1313060	-158
1313252	-111
1313444	-86
1313634	-126
1313821	-118
1314020	-71
1314222	-85
1314413	-175
1314612	-145
1314813	-181
1315005	-235
1315198	-153
1315398	-101
1315595	-109
1315785	-100
1315983	-83
1316180	-83
1316368	-119
1316567	-35
1316766	-39
1316965	-87
1317159	-72
1317367	-60
1317574	-112
1317766	-145
1317963	-71
1318157	-72
1318341	-163
1318534	-79
1318729	-69
1318917	-148
1319104	-111
1319299	-80
1319493	-79
1319681	-75
1319875	-34
1320073	-56
1320260	-111
1320449	-61
1320650	-38
1320862	-32
1321056	-93
1321254	-47
1321445	-25
1321629	1
1321810	4
1321992	-108
1322166	-257
1322338	-322
1322511	-339
1322689	-238
1322878	-151
1323061	-100
1323238	-120
1323415	-107
1323585	-108
1323750	-91
1323913	-93
1324069	-119
1324226	-75
1324382	-60
1324537	-50
1324695	-156
1324853	-181
1325010	-137
1325167	-29
1325330	79
1325498	35
1325665	-155
1325833	-155
1326006	-138
1326182	-147
1326367	-116
1326558	-160
1326745	-210
1326922	-195
1327099	-102
1327271	-144
1327445	-291
1327619	-265
1327794	-288
1327972	-333
1328144	-353
1328316	-253
1328494	-222
1328679	-298
1328860	-242
1329047	-211
1329238	-164
1329416	-204
1329596	-113
1329779	-69
1329958	-112
1330131	-144
1330315	-80
1330502	-115
1330681	-206
1330864	-159
1331045	-158
1331217	-129
1331391	-101
1331560	-51
1331727	-49
1331892	5
1332071	11
1332249	-228
1332420	-195
1332606	-69
1332788	-20
1332966	-262
1333139	-265
1333314	-327
1333491	-262
1333690	-142
1333896	-21
1334088	41
1334268	79
1334444	95
1334614	71
1334785	22
1334954	-56
1335124	-58
1335300	-324
1335471	-390
1335645	-371
1335833	-251
1336018	-185
1336192	-49
1336365	79
1336538	-104
1336706	-191
1336873	-221
1337044	-211
1337215	-155
1337385	-134
1337550	-125
1337710	-213
1337870	-142
1338029	-86
1338186	-134
1338344	-142
1338506	-113
1338673	-133
1338855	-171
1339036	-189
1339215	-145
1339404	-76
1339595	-122
1339783	-105
1339963	-105
1340142	-60
1340312	-69
1340482	-61
1340667	-58
1340847	-76
1341026	-104
1341213	-58
1341401	-116
1341587	-158
1341769	-228
1341957	-213
1342142	-236
1342323	-282
1342503	-247
1342694	-204
1342888	-166
1343072	-151
1343253	-108
1343442	-97
1343634	-102
1343815	-101
1343994	-58
1344184	-20
1344376	-12
1344563	-40
1344748	-56
1344945	-67
1345143	-45
1345325	-61
1345504	-28
1345675	-17
1345850	1
1346040	-24
1346220	-56
1346404	-39
1346602	-51
1346795	-108
1346987	-137
1347188	-127
1347385	-116
1347574	-112
1347778	-50
1347978	-51
1348167	-63
1348358	-14
1348547	12
1348732	-5
1348915	-35
1349101	6
1349282	-83
1349461	-97
1349644	-67
1349826	-71
1350003	-107
1350182	-87
1350376	-83
1350567	-134
1350748	-151
1350940	-127
1351132	-166
1351314	-210
1351494	-213
1351669	-222
1351851	-280
1352033	-220
1352243	-198
1352464	-244
1352674	-236
1352878	-232
1353090	-184
1353300	-166
1353496	-137
1353705	-109
1353901	-91
1354082	-104
1354271	-54
1354470	-54
1354658	-111
1354855	-68
1355062	-94
1355258	-185
1355454	-133
1355655	-133
1355854	-169
1356056	-122
1356265	-122
1356458	-195
1356658	-138
1356860	-137
1357050	-213
1357244	-169
1357446	-113
1357641	-122
1357843	-64
1358051	-28
1358254	-102
1358458	-51
1358665	-43
1358861	-58
1359062	-58
1359264	-38
1359467	-74
1359668	-79
1359879	-76
1360080	-123
1360274	-133
1360470	-112
1360656	-100
1360837	-101
1361014	-180
1361186	-105
1361370	-164
1361545	-166
1361738	-140
1361919	-126
1362098	-141
1362286	-54
1362464	-111
1362638	-98
1362813	9
1362986	-24
1363167	-68
1363341	-159
1363518	-140
1363693	-25
1363865	-102
1364033	-152
1364201	-166
1364379	-213
1364567	-249
1364758	-247
1364937	-218
1365117	-123
1365309	-74
1365497	-71
1365689	-82
1365871	-109
1366064	-112
1366263	-153
1366466	-191
1366659	-244
1366849	-253
1367041	-193
1367239	-191
1367436	-246
1367630	-242
1367842	-148
1368054	-97
1368253	-125
1368452	-122
1368662	-111
1368873	-130
1369065	-181
1369266	-104
1369470	-82
1369661	-112
1369850	-137
1370051	-79
1370254	-54
1370448	-112
1370656	-63
1370864	-72
1371055	-142
1371245	-100
1371437	-80
1371623	-109
1371801	-149
1371990	-83
1372189	-69
1372379	-118
1372565	-142
1372761	-138
1372961	-137
1373154	-178
1373344	-148
1373543	-112
1373744	-142
1373935	-214
1374131	-145
1374332	-131
1374530	-149
1374723	-127
1374929	-97
1375129	-177
1375320	-160
1375529	-130
1375734	-152
1375927	-203
1376127	-116
1376325	-101
1376521	-138
1376708	-125
1376902	-51
1377101	-20
1377292	-90
1377482	-75
1377684	-83
1377891	-98
1378085	-170
1378284	-91
1378485	-91
1378677	-169
1378867	-131
1379060	-111
1379247	-153
1379435	-112
1379625	-83
1379812	-112
1379994	-118
1380182	-68
1380372	-104
1380551	-167
1380731	-148
1380924	-87
1381112	-112
1381294	-101
1381484	-39
1381674	-65
1381854	-111
1382038	-53
1382222	-36
1382399	-80
1382578	-67
1382767	-65
1382955	-96
1383136	-152
1383323	-134
1383516	-131
1383701	-198
1383885	-138
1384067	-90
1384246	-151
1384418	-138
1384584	-153
1384750	-211
1384937	-64
1385155	19
1385376	44
1385582	-20
1385783	-2
1385978	-40
1386159	5
1386333	23
1386500	-50
1386666	-100
1386835	-47
1387021	-29
1387209	-35
1387401	-155
1387585	-271
1387777	-283
1387966	-257
1388151	-269
1388334	-184
1388520	-181
1388707	-209
1388889	-324
1389073	-279
1389265	-235
1389452	-258
1389635	-231
1389823	-209
1390008	-240
1390188	-282
1390374	-217
1390563	-180
1390745	-209
1390927	-173
1391111	-123
1391291	-112
1391466	-158
1391644	-115
1391828	-85
1392012	-79
1392193	-140
1392383	-108
1392572	-86
1392758	-152
1392938	-149
1393123	-93
1393302	-107
1393477	-184
1393649	-167
1393817	-126
1393994	-134
1394169	-185
1394356	-152
1394551	-153
1394744	-158
1394930	-144
1395122	-75
1395316	-64
1395504	-109
1395690	-83
1395878	-56
1396069	-58
1396253	-129
1396440	-89
1396635	-64
1396830	-97
1397014	-167
1397206	-118
1397400	-101
1397589	-151
1397773	-140
1397960	-93
1398144	-113
1398324	-133
1398518	-50
1398707	-68
1398891	-152
1399071	-118
1399257	-102
1399441	-118
1399621	-111
1399810	-49
1399997	-43
1400175	-90
1400359	-57
1400547	-68
1400732	-125
1400910	-125
1401096	-78
1401289	-65
1401471	-94
1401654	-65
1401836	-64
1402017	-125
1402199	-119
1402393	-112
1402589	-137
1402778	-193
1402984	-137
1403188	-104
1403387	-175
1403584	-133
1403778	-80
1403962	-97
1404149	-64
1404340	-47
1404534	-65
1404723	-67
1404920	-51
1405121	-85
1405309	-118
1405500	-50
1405692	-53
1405880	-87
1406063	-80
1406256	-64
1406447	-96
1406630	-155
1406827	-137
1407025	-127
1407213	-136
1407403	-102
1407600	-94
1407796	-131
1407983	-116
1408178	-38
1408369	-31
1408553	-42
1408753	-13
1408957	-23
1409152	-57
1409346	-42
1409542	-46
1409743	-93
1409932	-144
1410137	-90
1410338	-119
1410531	-170
1410746	-148
1410968	-158
1411167	-218
1411367	-162
1411556	-171
1411732	-203
1411909	-163
1412081	-137
1412248	-130
1412426	-153
1412601	-164
1412778	-91
1412968	-57
1413155	-140
1413338	-142
1413551	-115
1413773	-151
1413971	-202
1414168	-107
1414360	-90
1414547	-145
1414726	-152
1414917	-120
1415107	-155
1415286	-215
1415475	-109
1415674	-97
1415861	-166
1416044	-149
1416239	-97
1416429	-156
1416613	-282
1416802	-182
1417000	-138
1417197	-126
1417381	-145
1417579	-42
1417773	-57
1417979	-127
1418171	-105
1418375	-65
1418577	-71
1418771	-133
1418977	-69
1419183	-69
1419385	-129
1419580	-122
1419778	-80
1419971	-104
1420154	-184
1420335	-123
1420516	-141
1420695	-195
1420873	-144
1421065	-94
1421268	-129
1421460	-134
1421660	-50
1421868	-56
1422068	-83
1422264	-56
1422467	-16
1422660	-45
1422844	-20
1423026	44
1423210	17
1423386	-67
1423565	-71
1423746	-107
1423921	-193
1424094	-199
1424272	-180
1424453	-155
1424629	-200
1424805	-180
1424992	-113
1425179	-94
1425359	-111
1425540	-51
1425722	-6
1425899	-89
1426074	-58
1426254	-14
1426438	-16
1426614	-42
1426809	-18
1427005	-35
1427198	-71
1427386	-58
1427573	-61
1427759	-39
1427936	-89
1428115	-72
1428297	-74
1428475	-175
1428653	-215
1428834	-195
1429028	-158
1429209	-220
1429389	-167
1429579	-162
1429766	-242
1429947	-221
1430136	-170
1430325	-155
1430505	-167
1430690	-80
1430872	-31
1431059	-72
1431237	-69
1431425	-28
1431618	-57
1431802	-120
1431991	-90
1432166	-86
1432339	-126
1432511	-80
1432682	-126
1432848	-195
1433013	-171
1433184	-118
1433361	-141
1433535	-214
1433705	-204
1433877	-130
1434054	-181
1434233	-180
1434427	-144
1434623	-125
1434807	-137
1434987	-104
1435161	-42
1435330	-36
1435498	-67
1435665	-7
1435826	-14
1435986	-56
1436145	-54
1436309	-96
1436472	-78
1436646	-5
1436829	-13
1437010	-118
1437187	-136
1437379	-115
1437571	-127
1437754	-213
1437936	-136
1438115	-167
1438289	-189
1438466	-118
1438649	-105
1438834	-127
1439019	-61
1439213	-49
1439399	-109
1439586	-68
1439779	-35
1440148	-63
1440335	30
1440530	2
1440713	-31
1440908	-18
1441110	-64
1441291	-138
1441474	-145
1441659	-82
1441838	-148
1442027	-43
1442206	-198
1442387	-155
1442569	-163
1442744	-192
1442923	-166
1443095	-221
1443268	-229
1443441	-188
1443627	-202
1443810	-198
1443993	-254
1444171	-335
1444352	-331
1444536	-288
1444726	-221
1444914	-191
1445101	-156
1445289	-126
1445473	-101
1445648	-102
1445821	-87
1445998	-79
1446173	-198
1446354	-119
1446534	-119
1446708	-127
1446880	-162
1447055	-85
1447253	-69
1447439	-108
1447624	-79
1447816	-90
1448011	-130
1448201	-122
1448402	-75
1448600	-82
1448783	-136
1448969	-10
1449153	9
1449339	-10
1449517	-13
1449703	6
1449894	-12
1450080	-56
1450264	-56
1450459	-105
1450648	-122
1450832	-119
1451029	-123
1451226	-191
1451410	-162
1451595	-145
1451775	-185
1451948	-196
1452128	-111
1452323	-108
1452517	-151
1452707	-134
1452903	-108
1453102	-71
1453298	-91
1453487	-32
1453680	-16
1453874	-56
1454056	-119
1454241	-97
1454428	-80
1454610	-130
1454790	-149
1454974	-136
1455152	-188
1455325	-198
1455495	-156
1455663	-149
1455829	-246
1455998	-167
1456163	-112
1456335	-130
1456507	-286
1456679	-244
1456868	-211
1457052	-268
1457235	-235
1457431	-169
1457620	-166
1457803	-109
1457992	-69
1458190	-36
1458377	-65
1458564	-35
1458760	-39
1458959	-91
1459147	-74
1459349	-57
1459548	-112
1459738	-209
1459926	-142
1460115	-115
1460309	-137
1460490	-185
1460677	-120
1460857	-111
1461030	-118
1461212	-160
1461389	-221
1461580	-158
1461777	-167
1461977	-225
1462174	-163
1462378	-90
1462576	-53
1462769	-21
1462970	-9
1463176	-14
1463369	-67
1463568	-25
1463770	-29
1463963	-65
1464152	-85
1464349	-85
1464549	-109
1464740	-195
1464935	-134
1465135	-131
1465321	-175
1465515	-109
1465709	-86
1465893	-125
1466076	-102
1466269	-101
1466461	-104
1466649	-101
1466848	-61
1467054	-45
1467250	-40
1467451	-21
1467659	-36
1467867	-47
1468061	-82
1468259	-51
1468474	-54
1468680	-109
1468874	-187
1469071	-171
1469273	-148
1469476	-159
1469669	-236
1469861	-184
1470058	-166
1470252	-200
1470440	-199
1470637	-164
1470840	-147
1471042	-184
1471241	-129
1471444	-68
1471642	-63
1471834	-71
1472033	-63
1472229	-64
1472415	-98
1472601	-79
1472791	-82
1472982	-96
1473162	-144
1473347	-101
1473548	-109
1473741	-152
1473925	-174
1474109	-134
1474300	-160
1474482	-207
1474662	-175
1474845	-140
1475032	-155
1475214	-133
1475410	-75
1475620	-61
1475814	-101
1476004	-100
1476202	-100
1476397	-101
1476591	-144
1476787	-101
1476994	-86
1477200	-78
1477392	-102
1477586	-87
1477786	-97
1477984	-141
1478169	-178
1478358	-100
1478550	-104
1478743	-119
1478925	-113
1479117	-86
1479313	-101
1479498	-131
1479681	-105
1479877	-74
1480081	-50
1480268	-57
1480451	-40
1480630	-57
1480803	-45
1480972	-125
1481142	-113
1481338	-16
1481551	26
1481765	-12
1481963	-147
1482157	-185
1482363	-144
1482571	-134
1482775	-188
1482972	-97
1483179	-43
1483393	-23
1483595	-94
1483788	-60
1483983	-40
1484182	-24
1484377	-46
1484584	-80
1484810	-60
1485020	-64
1485216	-78
1485414	-129
1485609	-140
1485793	-130
1485973	-100
1486154	-101
1486336	-133
1486515	-178
1486704	-102
1486894	-89
1487074	-166
1487263	-145
1487450	-96
1487634	-100
1487826	-180
1488017	-226
1488202	-253
1488395	-244
1488588	-269
1488773	-214
1488962	-140
1489153	-111
1489333	-180
1489510	-185
1489684	-170
1489851	-226
1490017	-149
1490179	-191
1490346	-153
1490513	-198
1490681	-174
1490860	-137
1491051	-144
1491232	-180
1491412	-126
1491612	-111
1491818	-148
1492015	-228
1492208	-191
1492412	-160
1492625	-163
1492824	-222
1493019	-185
1493218	-129
1493413	-116
1493594	-156
1493784	-101
1493974	-69
1494166	-93
1494349	-94
1494541	-64
1494732	-65
1494913	-105
1495101	-116
1495299	-82
1495486	-142
1495666	-144
1495849	-122
1496038	-74
1496229	-123
1496408	-164
1496590	-119
1496778	-60
1496978	-63
1497160	-130
1497341	-125
1497532	-118
1497725	-145
1497907	-169
1498088	-120
1498279	-67
1498484	-32
1498675	-27
1498866	-49
1499060	-50
1499247	-57
1499431	-93
1499627	-40
1499824	-61
1500007	-86
1500193	-119
1500384	-126
1500577	-152
1500762	-202
1500954	-173
1501151	-144
1501350	-169
1501534	-225
1501728	-140
1501923	-87
1502119	-89
1502305	-113
1502498	-57
1502691	-68
1502876	-118
1503068	-46
1503260	15
1503454	-17
1503638	-25
1503829	-32
1504028	-78
1504209	-113
1504387	19
1504561	89
1504735	-90
1504906	-167
1505086	-192
1505285	-352
1505486	-236
1505674	-265
1505862	-215
1506059	-153
1506251	-125
1506437	-145
1506632	-133
1506830	-171
1507020	-279
1507202	-395
1507390	-322
1507584	-199
1507781	-136
1507969	-136
1508159	-86
1508365	-68
1508564	-136
1508752	-133
1508947	-90
1509146	-93
1509338	-187
1509524	-145
1509721	-72
1509909	-144
1510091	-164
1510277	-94
1510467	-144
1510648	-207
1510844	-174
1511037	-213
1511219	-265
1511410	-171
1511606	-148
1511793	-193
1511980	-233
1512160	-78
1512331	-27
1512497	23
1512661	-76
1512820	-187
1512983	-217
1513164	-69
1513354	-46
1513558	-28
1513755	-83
1513938	-127
1514128	-94
1514323	-79
1514515	-79
1514701	-109
1514875	-129
1515050	-87
1515226	-38
1515407	-63
1515588	-188
1515770	-100
1515951	-102
1516128	-187
1516304	-138
1516492	-75
1516680	-67
1516857	-83
1517036	-74
1517219	-74
1517400	-83
1517575	-89
1517750	-78
1517930	-98
1518111	-102
1518288	-102
1518470	-56
1518658	-51
1518839	-104
1519017	-129
1519206	-115
1519395	-120
1519580	-158
1519762	-130
1519949	-85
1520130	-109
1520306	-137
1520484	-82
1520665	-71
1520837	-94
1521014	-42
1521193	-5
1521372	-25
1521546	-56
1521736	-28
1521925	-45
1522111	-64
1522294	-71
1522478	-94
1522661	-120
1522836	-167
1523012	-144
1523193	-142
1523368	-213
1523540	-224
1523710	-184
1523882	-156
1524055	-247
1524225	-233
1524397	-158
1524574	-207
1524744	-282
1524917	-247
1525092	-180
1525266	-217
1525434	-235
1525603	-178
1525773	-119
1525946	-6
1526115	-63
1526281	-111
1526445	-148
1526608	-119
1526769	-140
1526930	-175
1527098	-63
1527274	-39
1527451	-69
1527619	-225
1527788	-240
1527971	-214
1528166	-209
1528363	-243
1528549	-175
1528743	-90
1528943	-94
1529138	-160
1529330	-174
1529527	-129
1529716	-169
1529895	-191
1530074	-137
1530259	-58
1530445	-83
1530623	-109
1530807	-46
1530998	1
1531192	-17
1531376	-123
1531554	-129
1531733	-57
1531918	-57
1532106	-51
1532286	-78
1532483	-36
1532696	-47
1532905	-67
1533107	-153
1533310	-122
1533521	-97
1533732	-86
1533932	-156
1534130	-126
1534334	-109
1534542	-122
1534737	-171
1534932	-130
1535135	-82
1535338	-94
1535527	-127
1535722	-78
1535922	-53
1536125	-61
1536320	-97
1536517	-71
1536718	-78
1536912	-116
1537100	-152
1537289	-101
1537472	-75
1537647	-187
1537822	8
1537994	-21
1538166	-112
1538338	-126
1538513	-68
1538705	-97
1538892	-175
1539075	-133
1539274	-102
1539464	-24
1539652	-20
1539828	-75
1540003	-60
1540179	-36
1540358	-71
1540535	-78
1540708	-89
1540882	-53
1541065	-36
1541248	-71
1541426	-101
1541605	-72
1541795	-65
1541981	-112
1542157	-185
1542329	-193
1542497	-163
1542666	-144
1542851	-144
1543035	-178
1543212	-163
1543402	-98
1543598	-102
1543794	-164
1543982	-158
1544187	-101
1544380	-145
1544569	-75
1544762	-49
1544955	-86
1545140	-108
1545335	-76
1545545	-89
1545738	-147
1545928	-129
1546123	-118
1546315	-136
1546500	-159
1546697	-129
1546889	-162
1547073	-240
1547265	-166
1547457	-105
1547656	-111
1547846	-160
1548041	-86
1548239	-56
1548436	-83
1548624	-107
1548818	-63
1549010	-31
1549197	-47
1549381	-67
1549578	-39
1549778	-31
1549962	-100
1550145	-86
1550327	-38
1550514	-43
1550694	-105
1550869	-151
1551050	-113
1551227	-187
1551398	-224
1551575	-175
1551757	-166
1551936	-211
1552113	-196
1552299	-111
1552487	-105
1552683	-158
1552866	-187
1553055	-115
1553252	-65
1553447	-101
1553631	-112
1553827	-63
1554031	-56
1554228	-97
1554415	-119
1554610	-104
1554801	-111
1554978	-112
1555152	-147
1555326	-137
1555506	-158
1555695	-218
1555879	-204
1556083	-163
1556298	-108
1556504	-174
1556707	-156
1556913	-104
1557115	-145
1557306	-162
1557496	-97
1557686	-67
1557865	-98
1558041	-86
1558227	-27
1558422	-5
1558608	-36
1558800	-12
1559002	-20
1559191	-60
1559378	-89
1559574	-100
1559767	-119
1559947	-134
1560140	-148
1560337	-147
1560530	-231
1560721	-210
1560916	-184
1561107	-258
1561291	-239
1561481	-164
1561665	-108
1561843	-126
1562023	-76
1562213	-27
1562402	-75
1562582	-87
1562775	6
1562972	-17
1563163	-109
1563343	-122
1563522	-78
1563707	-36
1563888	-101
1564062	-175
1564239	-98
1564418	-91
1564589	-149
1564757	-145
1564923	-167
1565095	-173
1565269	-147
1565437	-181
1565607	-266
1565782	-191
1565956	-184
1566128	-253
1566304	-181
1566492	-138
1566683	-225
1566865	-269
1567057	-211
1567260	-187
1567461	-178
1567645	-269
1567825	-247
1568004	-213
1568185	-187
1568380	-290
1568572	-221
1568761	-221
1568959	-193
1569140	-338
1569320	-367
1569499	-272
1569682	-291
1569857	-262
1570038	-133
1570214	-89
1570386	-85
1570554	-47
1570720	-6
1570896	8
1571074	-53
1571247	-94
1571424	-61
1571606	-63
1571790	-159
1571969	-163
1572165	-93
1572371	-90
1572571	-140
1572767	-104
1572970	-47
1573173	-40
1573362	-80
1573567	-28
1573779	-32
1573973	-76
1574169	-24
1574368	4
1574568	-25
1574761	-34
1575169	-67
1575360	-138
1575559	-91
1575771	-80
1575998	-90
1576209	-97
1576424	-80
1576643	-75
1576844	-87
1577040	-53
1577238	-35
1577437	-35
1577627	-54
1577832	-17
1578045	-3
1578253	-29
1578457	-64
1578674	-47
1578893	-67
1579092	-173
1579290	-119
1579483	-105
1579671	-156
1579863	-145
1580076	-141
1580286	-131
1580483	-125
1580700	-80
1580919	-74
1581117	-137
1581315	-89
1581511	-65
1581703	-58
1581890	-64
1582086	-58
1582283	-53
1582468	-86
1582661	-29
1582857	-35
1583043	-138
1583227	-166
1583417	-109
1583610	-111
1583795	-181
1583975	-255
1584155	-240
1584338	-231
1584526	-181
1584710	-229
1584887	-239
1585069	-191
1585258	-160
1585441	-228
1585621	-228
1585813	-166
1586007	-104
1586195	-141
1586371	-189
1586550	-236
1586720	-162
1586883	-60
1587048	28
1587215	-2
1587377	-76
1587538	-104
1587705	-144
1587890	-101
1588073	-20
1588245	-163
1588412	-198
1588579	-181
1588746	-134
1588915	-142
1589083	-93
1589246	-169
1589408	-145
1589572	-145
1589733	-217
1589891	-220
1590049	-199
1590211	-170
1590378	-210
1590547	-112
1590712	-159
1590877	-90
1591053	-69
1591232	-93
1591404	-49
1591569	-125
1591731	-226
1591890	-392
1592051	-379
1592210	-465
1592369	-429
1592540	-353
1592719	-257
1592906	-225
1593079	-258
1593256	-221
1593441	-163
1593624	-134
1593805	-177
1593981	-195
1594161	-153
1594342	-101
1594519	-137
1594694	-174
1594879	-152
1595060	-60
1595235	-108
1595409	-119
1595594	-102
1595788	-96
1595980	-142
1596168	-163
1596374	-145
1596573	-144
1596759	-145
1596946	-136
1597126	-119
1597301	-158
1597471	-182
1597639	-175
1597810	-97
1597992	-89
1598170	-78
1598355	-53
1598547	-24
1598739	-25
1598925	-64
1599113	-83
1599314	-35
1599513	-38
1599699	-53
1599882	-86
1600080	-78
1600277	-80
1600464	-131
1600648	-134
1600846	-108
1601054	-127
1601246	-200
1601435	-213
1601633	-189
1601836	-166
1602037	-174
1602230	-173
1602434	-145
1602645	-113
1602846	-158
1603038	-167
1603241	-126
1603443	-123
1603639	-155
1603839	-145
1604040	-115
1604243	-89
1604435	-96
1604636	-51
1604839	-54
1605033	-86
1605216	-90
1605396	-229
1605574	-871
1605751	-510
1605923	-397
1606092	-502
1606257	-519
1606418	-421
1606580	-359
1606741	-283
1606908	-231
1607081	-193
1607251	-180
1607423	-113
1607606	-35
1607799	-6
1607979	-17
1608156	-24
1608344	12
1608548	44
1608750	89
1608943	75
1609134	70
1609334	122
1609535	75
1609728	-28
1609913	-109
1610097	-116
1610282	-189
1610465	-189
1610665	-144
1610868	-151
1611058	-195
1611246	-171
1611443	-149
1611634	-200
1611819	-185
1612015	-129
1612211	-127
1612395	-220
1612578	-198
1612775	-160
1612971	-167
1613154	-220
1613341	-140
1613537	-94
1613733	-45
1613913	-75
1614097	-94
1614284	-78
1614464	-231
1614643	-158
1614827	-87
1615013	-164
1615189	-184
1615368	-156
1615553	-136
1615736	-175
1615915	-177
1616102	-156
1616287	-152
1616464	-196
1616641	-155
1616824	-109
1617015	-93
1617205	-156
1617383	-192
1617568	-123
1617754	-105
1617933	-102
1618122	-43
1618307	9
1618492	5
1618673	-20
1618859	-49
1619033	-40
1619205	-2
1619377	-60
1619544	-40
1619708	-14
1619876	-42
1620045	-60
1620210	-82
1620376	-112
1620539	-158
1620699	-163
1620861	-164
1621031	-159
1621203	-184
1621370	-163
1621544	-107
1621727	-78
1621909	-101
1622081	-53
1622250	-72
1622419	-111
1622590	-56
1622766	22
1622938	68
1623106	71
1623275	100
1623450	115
1623627	112
1623800	-6
1623972	-23
1624146	-54
1624320	-83
1624496	-156
1624667	-137
1624839	191
1625006	1523
1625168	916
1625332	476
1625494	1
1625656	-14
1625820	-306
1625982	-524
1626146	-554
1626315	-560
1626488	-583
1626655	-672
1626822	-677
1626990	-619
1627159	-603
1627332	-574
1627502	-516
1627671	-512
1627843	-415
1628020	-334
1628205	-301
1628383	-346
1628564	-362
1628758	-282
1628954	-207
1629141	-200
1629330	-192
1629522	-160
1629713	-166
1629905	-211
1630089	-238
1630272	-180
1630467	-141
1630664	-141
1630850	-144
1631040	-82
1631224	-119
1631397	-171
1631568	-182
1631742	-203
1631929	-162
1632111	-169
1632293	-174
1632479	-162
1632668	-166
1632850	-182
1633039	-162
1633238	-156
1633431	-188
1633617	-211
1633801	-133
1633986	-69
1634170	-113
1634359	-90
1634566	-78
1634777	-113
1634978	-123
1635200	-65
1635418	-16
1635624	-34
1635831	-42
1636043	-63
1636248	-90
1636441	-46
1636636	-18
1636830	-21
1637017	23
1637213	24
1637411	8
1637603	-24
1637807	-89
1638019	-163
1638220	-239
1638428	-144
1638640	-113
1638837	-173
1639038	-133
1639246	-91
1639445	-118
1639635	-112
1639828	-72
1640019	-96
1640201	-36
1640390	33
1640581	50
1640763	-49
1640951	-45
1641151	-68
1641355	-109
1641544	-109
1641739	-87
1641943	-53
1642153	-61
1642351	-100
1642553	-104
1642751	-115
1642943	-203
1643131	-217
1643322	-218
1643514	-266
1643693	-309
1643870	-293
1644045	-242
1644227	-191
1644412	-210
1644591	-229
1644772	-195
1644962	-160
1645155	-193
1645341	-224
1645538	-182
1645736	-200
1645927	-214
1646119	-200
1646318	-147
1646513	-130
1646699	-116
1646897	-127
1647100	-111
1647299	-171
1647485	-247
1647683	-185
1647889	-164
1648082	-177
1648277	-144
1648478	-125
1648680	-182
1648871	-196
1649066	-158
1649265	-94
1649465	-96
1649659	-107
1649859	-90
1650062	-102
1650266	-145
1650460	-163
1650665	-137
1650867	-152
1651055	-163
1651243	-175
1651424	-144
1651596	-113
1651767	-102
1651942	-133
1652118	-167
1652311	-118
1652513	-122
1652703	-217
1652894	-202
1653096	-109
1653305	-93
1653501	-141
1653692	-134
1653890	-82
1654089	-60
1654285	-90
1654475	-69
1654675	-12
1654878	-9
1655076	-80
1655269	-151
1655498	-123
1655716	-123
1655919	-156
1656115	-153
1656314	-98
1656503	-107
1656685	-140
1656876	-76
1657075	-74
1657262	-100
1657452	-119
1657645	-80
1657835	-87
1658024	-107
1658218	-54
1658406	-86
1658585	-133
1658761	-140
1658953	-74
1659145	-60
1659328	-63
1659522	-71
1659728	-75
1659938	-122
1660142	-155
1660354	-142
1660560	-111
1660758	-112
1660962	-82
1661165	-69
1661361	-60
1661567	-58
1661779	-83
1661983	-151
1662196	-147
1662403	-116
1662597	-155
1662798	-120
1662998	-104
1663185	-136
1663376	-140
1663575	-122
1663769	-115
1663954	-93
1664139	-74
1664328	-68
1664513	-93
1664692	-125
1664873	-116
1665065	-134
1665252	-134
1665433	-119
1665628	-76
1665825	-34
1666018	-36
1666200	-78
1666379	-112
1666571	-101
1666764	-109
1666950	-137
1667134	-170
1667327	-145
1667515	-125
1667699	-142
1667884	-182
1668075	-171
1668266	-158
1668462	-149
1668660	-91
1668865	-40
1669078	-25
1669290	-49
1669491	-82
1669688	-127
1669891	-75
1670090	-39
1670288	-34
1670481	-53
1670678	-54
1670884	-49
1671090	-67
1671295	-94
1671491	-149
1671693	-169
1671893	-159
1672083	-167
1672272	-167
1672468	-136
1672668	-127
1672863	-178
1673053	-187
1673247	-126
1673439	-105
1673622	-90
1673801	-89
1673979	-98
1674152	-134
1674320	-147
1674487	-126
1674654	-111
1674822	-125
1674993	-78
1675173	-86
1675347	-64
1675525	-108
1675715	-90
1675909	-86
1676091	-115
1676276	-138
1676468	-162
1676660	-191
1676839	-213
1677022	-228
1677213	-188
1677414	-196
1677602	-229
1677790	-200
1678012	-100
1678220	-47
1678420	11
1678620	35
1678837	79
1679054	27
1679264	1
1679486	60
1679708	-14
1679912	-65
1680126	-113
1680358	6
1680590	-49
1680801	-127
1681026	-97
1681250	-129
1681460	-213
1681667	-228
1681875	-193
1682078	-229
1682286	-269
1682496	-199
1682706	-163
1682901	-175
1683097	-166
1683295	-133
1683491	-162
1683678	-203
1683865	-218
1684061	-210
1684263	-215
1684454	-228
1684648	-193
1684853	-112
1685055	-102
1685248	-147
1685445	-149
1685642	-147
1685838	-166
1686023	-193
1686209	-152
1686395	-104
1686583	-120
1686763	-169
1686944	-152
1687137	-102
1687333	-102
1687513	-138
1687695	-102
1687887	-82
1688073	-115
1688253	-174
1688430	-145
1688607	-133
1688781	-155
1688959	-152
1689150	-98
1689345	-112
1689523	-96
1689707	-102
1689896	-51
1690087	-80
1690272	-130
1690475	-108
1690682	-94
1690877	-123
1691068	-142
1691267	-133
1691462	-164
1691654	-155
1691855	-136
1692053	-167
1692245	-148
1692439	-101
1692626	-100
1692808	-89
1692992	-78
1693186	-90
1693384	-100
1693568	-105
1693761	-83
1693955	-91
1694146	-76
1694331	-50
1694520	-34
1694723	-27
1694921	-58
1695107	-87
1695292	-100
1695483	-91
1695677	-120
1695863	-156
1696046	-195
1696231	-156
1696424	-145
1696607	-191
1696791	-268
1696971	-225
1697162	-211
1697365	-147
1697565	-89
1697755	-82
1697936	-113
1698112	-83
1698283	-61
1698452	-65
1698621	-108
1698806	-49
1699002	-36
1699198	-36
1699384	-38
1699570	-39
1699753	-49
1699942	-100
1700136	-185
1700320	-243
1700516	-209
1700713	-185
1700893	-203
1701076	-158
1701262	-160
1701447	-188
1701628	-217
1701815	-164
1702012	-120
1702209	-145
1702402	-188
1702592	-171
1702785	-163
1702972	-177
1703156	-196
1703351	-171
1703549	-142
1703738	-111
1703920	-105
1704104	-102
1704295	-80
1704481	-91
1704666	-130
1704859	-91
1705042	-130
1705220	-206
1705412	-152
1705599	-123
1705777	-162
1705959	-130
1706138	-98
1706312	-163
1706485	-167
1706658	-101
1706835	-79
1707014	-89
1707198	-83
1707386	-78
1707576	-129
1707757	-151
1707938	-123
1708113	-144
1708286	-136
1708462	-100
1708644	-53
1708823	-28
1709000	-72
1709190	-63
1709395	-82
1709601	-109
1709819	-137
1710034	-193
1710233	-210
1710424	-214
1710617	-162
1710808	-198
1710992	-244
1711171	-268
1711344	-254
1711515	-153
1711697	-74
1711878	-49
1712056	-9
1712248	0
1712448	24
1712645	11
1712836	-10
1713034	111
1713236	125
1713425	46
1713619	-56
1713817	-75
1714013	-35
1714203	-96
1714401	-91
1714598	-35
1714786	-112
1714973	-159
1715164	-120
1715361	-158
1715552	-220
1715752	-149
1715954	-164
1716149	-228
1716352	-213
1716556	-169
1716747	-247
1716938	-264
1717138	-215
1717334	-226
1717524	-257
1717715	-254
1717910	-196
1718103	-196
1718291	-213
1718484	-214
1718682	-145
1718875	-122
1719058	-167
1719242	-158
1719434	-102
1719619	-148
1719801	-177
1719999	-104
1720206	-64
1720409	-113
1720606	-113
1720810	-100
1721000	-115
1721189	-118
1721392	-63
1721594	-86
1721785	-125
1721978	-105
1722170	-65
1722355	-136
1722533	-191
1722731	-133
1722932	-96
1723127	-119
1723317	-130
1723509	-138
1723712	-61
1723919	-57
1724108	-108
1724296	-123
1724486	-122
1724683	-107
1724877	-119
1725070	-112
1725273	-97
1725479	-90
1725678	-151
1725877	-126
1726088	-101
1726294	-104
1726492	-153
1726703	-156
1726921	-164
1727143	-191
1727350	-159
1727560	-148
1727773	-144
1727989	-136
1728201	-101
1728405	-116
1728620	-127
1728835	-115
1729055	-93
1729262	-112
1729475	-100
1729689	-102
1729894	-153
1730095	-102
1730301	-76
1730501	-82
1730696	-112
1730884	-98
1731075	-79
1731268	-56
1731453	-53
1731634	-80
1731820	-91
1732011	-123
1732196	-187
1732382	-203
1732589	-155
1732799	-122
1733000	-137
1733201	-142
1733419	-142
1733633	-174
1733834	-177
1734045	-112
1734268	-107
1734474	-134
1734676	-141
1734894	-113
1735110	-116
1735312	-133
1735525	-109
1735740	-61
1735945	-85
1736150	-85
1736362	-109
1736560	-147
1736762	-152
1736968	-142
1737164	-160
1737373	-136
1737593	-115
1737810	-107
1738019	-109
1738234	-97
1738448	-89
1738649	-98
1738850	-108
1739055	-78
1739253	-74
1739440	-102
1739628	-142
1739825	-122
1740034	-105
1740237	-134
1740433	-156
1740637	-107
1740839	-112
1741025	-91
1741206	-101
1741388	-93
1741566	-149
1741740	-160
1741917	-163
1742096	-137
1742282	-108
1742461	-116
1742640	-97
1742816	-90
1742989	-105
1743160	-133
1743338	-120
1743517	-90
1743689	-98
1743855	-145
1744018	-231
1744180	-233
1744346	-164
1744519	-108
1744700	-75
1744881	-105
1745061	-175
1745240	-191
1745423	-158
1745611	-134
1745799	-133
1745984	-120
1746179	-93
1746360	-40
1746533	38
1746704	-113
1746869	-160
1747031	-136
1747202	-76
1747376	-68
1747547	-75
1747726	-61
1747908	-100
1748090	-140
1748273	-140
1748474	-113
1748677	-147
1748876	-189
1749070	-207
1749268	-151
1749460	-170
1749649	-206
1749837	-175
1750011	-191
1750186	-169
1750364	-170
1750539	-174
1750718	-206
1750915	-160
1751117	-170
1751314	-218
1751510	-222
1751715	-174
1751923	-159
1752119	-129
1752327	-104
1752549	-54
1752764	-60
1752961	-96
1753154	-68
1753347	-65
1753535	-115
1753735	-85
1753948	-68
1754154	-94
1754358	-67
1754558	-74
1754748	-145
1754937	-109
1755133	-54
1755324	-72
1755508	-65
1755694	-42
1755884	-21
1756073	-58
1756258	-102
1756446	-123
1756642	-76
1756841	-58
1757035	-47
1757229	-43
1757429	-63
1757629	-101
1757823	-131
1758025	-147
1758230	-137
1758426	-155
1758622	-167
1758825	-126
1759026	-160
1759212	-191
1759395	-138
1759571	-136
1759747	-166
1759920	-225
1760089	-47
1760261	0
1760443	59
1760635	96
1760836	30
1761036	0
1761244	-10
1761442	-87
1761635	-104
1761844	-54
1762046	-140
1762247	-120
1762450	-94
1762656	-108
1762859	-118
1763057	-75
1763248	-136
1763434	-140
1763619	-152
1763794	-31
1763963	-119
1764127	-203
1764288	-86
1764451	92
1764613	268
1764771	400
1764926	1343
1765081	1664
1765233	1733
1765386	1613
1765538	1324
1765689	669
1765839	559
1765988	71
1766140	-192
1766292	-348
1766444	-454
1766594	-545
1766747	-593
1766902	-619
1767057	-659
1767211	-644
1767365	-667
1767520	-678
1767679	-659
1767836	-623
1767989	-611
1768140	-578
1768290	-586
1768443	-525
1768600	-476
1768763	-393
1768925	-334
1769087	-353
1769251	-429
1769411	-480
1769572	-459
1769748	-400
1769952	-323
1770152	-249
1770355	-195
1770550	-175
1770737	-199
1770920	-238
1771100	-222
1771286	-224
1771470	-224
1771659	-203
1771864	-185
1772071	-126
1772275	-174
1772480	-72
1772680	-69
1772870	-180
1773044	-69
1773213	-64
1773377	-218
1773543	-231
1773713	-137
1773886	-80
1774059	-87
1774231	-50
1774402	101
1774568	-51
1774733	13
1774897	-63
1775058	-111
1775220	-108
1775402	-152
1775610	-184
1775813	-191
1776009	-173
1776214	-109
1776430	1
1776648	8
1776841	57
1777029	5
1777212	-23
1777391	-46
1777573	-74
1777751	-57
1777924	-107
1778094	-116
1778276	-118
1778468	-120
1778649	-158
1778837	-202
1779046	-226
1779248	-228
1779450	-196
1779637	-196
1779823	-184
1780002	-141
1780184	-104
1780354	-119
1780523	-89
1780698	-104
1780887	-64
1781067	-18
1781250	-53
1781434	-38
1781630	-20
1781831	-24
1782044	-38
1782238	-50
1782435	-108
1782633	-134
1782826	-113
1783018	-109
1783209	-137
1783395	-142
1783576	-167
1783749	-170
1783919	-156
1784100	-148
1784273	-108
1784446	-159
1784622	-126
1784807	-170
1784995	-138
1785181	-149
1785364	-134
1785545	-113
1785719	-40
1785889	-64
1786078	-38
1786289	-29
1786517	-20
1786750	-14
1786972	-85
1787171	-47
1787376	-13
1787572	-23
1787773	-50
1787964	-72
1788150	-98
1788334	-91
1788529	-80
1788726	-68
1788908	-91
1789088	-82
1789273	-78
1789456	-74
1789637	-64
1789809	-45
1789986	-24
1790166	-9
1790361	-20
1790553	-16
1790734	-16
1790914	-65
1791093	-115
1791279	-116
1791478	-130
1791670	-175
1791852	-182
1792037	-162
1792223	-141
1792413	-159
1792592	-189
1792768	-164
1792956	-137
1793152	-111
1793358	-87
1793562	-116
1793758	-120
1793981	-89
1794212	-64
1794436	-28
1794636	-38
1794835	-18
1795020	9
1795190	64
1795357	27
1795519	15
1795677	-45
1795837	-80
1796008	-119
1796178	-142
1796348	-166
1796527	-151
1796713	-159
1796904	-198
1797098	-214
1797318	-184
1797545	-164
1797751	-188
1797944	-125
1798145	-46
1798340	-31
1798519	19
1798693	8
1798879	19
1799077	-7
1799264	-12
1799454	5
1799661	-31
1799871	-40
1800062	-65
1800253	-57
1800445	-43
1800630	-71
1800804	-87
1800980	-107
1801161	-97
1801347	-127
1801529	-174
1801711	-142
1801901	-69
1802078	-39
1802245	-280
1802413	-130
1802588	-111
1802760	-184
1802934	-200
1803110	-188
1803299	-231
1803485	-272
1803662	-301
1803836	-266
1804014	-242
1804187	-221
1804359	-231
1804525	-279
1804689	-291
1804856	-251
1805029	-195
1805204	-182
1805374	-222
1805550	-231
1805751	-217
1805961	-182
1806171	-214
1806362	-258
1806560	-231
1806755	-198
1806945	-207
1807120	-209
1807296	-191
1807487	-112
1807679	-105
1807862	-156
1808043	-185
1808237	-182
1808451	-164
1808664	-140
1808854	-108
1809046	-105
1809248	-68
1809439	-53
1809624	-53
1809808	-101
1810005	-127
1810197	-129
1810380	-134
1810562	-151
1810750	-151
1810943	-137
1811129	-171
1811307	-202
1811488	-169
1811673	-131
1811853	-171
1812025	-196
1812198	-153
1812381	-102
1812562	-90
1812736	-123
1812911	-130
1813098	-104
1813285	-134
1813463	-116
1813640	-108
1813820	-68
1814002	-32
1814173	8
1814346	19
1814513	-16
1814680	-18
1814855	-108
1815029	-145
1815209	-229
1815386	-220
1815563	-226
1815728	-283
1815892	-277
1816054	-220
1816216	-199
1816383	-260
1816550	-283
1816717	-236
1816903	-142
1817082	-164
1817254	-228
1817431	-220
1817604	-222
1817772	-271
1817936	-287
1818100	-290
1818276	-221
1818472	-211
1818645	-200
1818817	-158
1818988	-123
1819155	-145
1819324	-156
1819488	-151
1819648	-2
1819804	-53
1819959	170
1820115	147
1820268	330
1820423	555
1820576	697
1820732	515
1820889	485
1821043	541
1821194	524
1821347	354
1821500	242
1821662	97
1821829	6
1821997	-115
1822183	-269
1822381	-330
1822570	-356
1822756	-346
1822926	-366
1823091	-392
1823253	-374
1823427	-306
1823611	-309
1823786	-344
1823966	-305
1824184	-258
1824375	-225
1824566	-158
1824759	-224
1824941	-221
1825135	-232
1825331	-220
1825513	-269
1825692	-220
1825859	1058
1826026	584
1826198	398
1826364	281
1826528	64
1826690	78
1826852	4
1827031	-61
1827208	-123
1827381	-142
1827562	-136
1827757	-156
1827950	-207
1828141	-209
1828329	-185
1828525	-153
1828710	-116
1828887	-91
1829061	-196
1829235	-220
1829401	-247
1829567	-240
1829738	-236
1829912	-127
1830080	-187
1830248	-217
1830422	-258
1830607	-211
1830799	-238
1830990	-220
1831171	-196
1831366	-198
1831559	-193
1831763	-199
1831951	-182
1832141	-178
1832344	-137
1832551	-101
1832742	-69
1832934	-104
1833118	-102
1833295	-142
1833475	-184
1833656	-131
1833845	-112
1834023	-148
1834212	-142
1834403	-142
1834588	-200
1834771	-206
1834958	-173
1835147	-138
1835328	-166
1835504	-166
1835691	-155
1835873	-191
1836051	-206
1836245	-125
1836433	-174
1836613	-217
1836796	-211
1836977	-202
1837155	-191
1837337	-160
1837523	-96
1837708	-54
1837888	-72
1838076	-97
1838267	-102
1838448	-125
1838628	-118
1838816	-87
1839000	-87
1839175	-108
1839350	-123
1839528	-105
1839712	-68
1839890	-118
1840066	-107
1840246	-98
1840433	-112
1840618	-163
1840798	-153
1840985	-125
1841179	-80
1841361	-107
1841535	-118
1841710	-112
1841891	-87
1842073	-35
1842261	-10
1842448	5
1842627	24
1842802	-25
1842989	-49
1843179	-64
1843364	-51
1843538	-85
1843715	-112
1843896	-127
1844073	-162
1844248	-167
1844428	-151
1844608	-145
1844786	-145
1845144	-144
1845333	-125
1845521	-133
1845701	-127
1845890	-131
1846078	-138
1846258	-155
1846439	-136
1846631	-107
1846827	-63
1847018	-14
1847201	-14
1847393	-25
1847583	-65
1847770	-79
1847950	-111
1848137	-82
1848324	-72
1848507	-65
1848685	-94
1848866	-104
1849051	-127
1849232	-204
1849411	-232
1849596	-204
1849791	-175
1849971	-210
1850149	-178
1850336	-126
1850525	-105
1850704	-151
1850881	-149
1851064	-108
1851256	-129
1851435	-108
1851615	-91
1851810	-67
1851998	-56
1852178	-53
1852361	-57
