32767	32767
32767	32767
32767	32767
32767	32767
32767	32767
32767	32767
32767	32767
-5070	-5070
-32768	-32768
19274	19274
-32768	-32768
-32768	-32768
-6751	-6751
32767	32767
-32768	-32768
32767	32767
-32768	-32768
32767	32767
32767	32767
-32768	-32768
-32768	-32768
21034	21034
32767	32767
3209	3209
-32768	-32768
18568	18568
32767	32767
-10510	-10510
1224	1224
46468	-31590
46477	-32768
46512	-32768
46589	-32768
46660	-25714
90035	117
90047	117
90262	126
90452	133
90463	129
90657	129
90669	132
90877	143
90889	144
91117	137
91129	137
91358	151
91370	139
91601	148
91613	143
91817	139
91829	139
92036	121
92047	115
92264	110
92276	110
92499	124
92511	119
92725	132
92737	135
92948	143
92960	143
93158	132
93170	141
93359	198
93539	111
93702	358
93714	239
93873	173
93884	168
94045	267
94056	290
94222	311
94233	312
94396	265
94407	275
94583	224
94594	224
94781	187
94793	179
95012	148
95229	121
95241	118
95460	122
95471	115
95685	126
95696	133
95894	118
95905	117
96089	137
96100	143
96278	152
96290	155
96459	154
96470	159
96653	154
96664	157
96866	161
96877	165
97123	162
97134	159
97358	173
97369	181
97584	177
97596	172
97796	180
97807	176
98016	176
98028	173
98251	177
98263	173
98481	187
98492	184
98709	187
98720	183
98943	181
98955	192
99164	199
99176	183
99380	177
99392	180
99610	163
99622	158
99852	172
99864	168
100081	172
100093	166
100306	176
100317	174
100543	186
100554	191
100779	195
100791	195
101003	181
101015	187
101231	161
101243	158
101464	161
101475	165
101683	190
101695	180
101898	198
101910	199
102115	181
102127	177
102336	205
102347	197
102546	206
102558	203
102760	187
102771	186
102985	174
102997	174
103207	177
103219	184
103430	170
103441	166
103669	151
103681	150
103907	154
103919	152
104132	165
104144	170
104353	162
104365	159
104592	143
104604	144
104828	147
104840	146
105056	152
105068	150
105294	136
105305	135
105531	140
105543	137
105755	154
105766	151
105982	130
105994	125
106220	115
106232	122
106473	125
106485	130
106692	137
106703	146
106911	125
106923	130
107139	129
107151	132
107359	147
107370	144
107572	147
107584	144
107804	128
107816	128
108029	154
108040	165
108247	184
108259	173
108457	192
108469	183
108670	172
108682	170
108890	154
108901	155
109107	143
109119	143
109321	154
109332	157
109523	172
109535	179
109720	180
109893	128
109905	128
110090	103
110101	108
110299	108
110311	111
110507	132
110518	133
110708	133
110720	129
110916	124
110927	128
111148	115
111159	106
111377	103
111389	108
111603	101
111615	100
111835	103
111847	107
112052	119
112063	124
112255	128
112267	124
112454	126
112466	133
112649	158
112661	158
112836	158
112847	159
113030	143
113042	154
113241	166
113252	177
113471	163
113483	172
113682	154
113694	157
113910	148
113922	151
114171	125
114182	124
114442	115
114454	115
114684	133
114695	136
114911	143
114922	137
115124	139
115136	140
115323	140
115335	144
115519	137
115531	139
115721	106
115732	112
115930	112
115942	115
116129	132
116141	133
116324	115
116336	118
116529	125
116540	128
116754	122
116765	125
117014	107
117026	111
117249	115
117261	118
117472	126
117483	129
117680	129
117692	133
117874	136
117886	150
118065	148
118076	151
118262	141
118274	144
118465	147
118477	148
118674	158
118686	165
118876	163
118887	159
119094	133
119106	121
119330	101
119342	103
119560	-250
119571	-149
119777	57
119788	64
119975	93
119986	82
120159	63
120171	42
120339	143
120351	150
120519	139
120531	141
120703	141
120715	137
120887	148
120898	141
121071	137
121083	146
121264	223
121276	201
121470	141
121481	135
121687	108
121698	114
121899	122
121910	130
122099	140
122111	150
122300	132
122311	124
122493	168
122505	172
122681	188
122692	191
122874	201
122885	206
123078	174
123089	179
123283	157
123294	155
123502	135
123514	137
123732	108
123743	107
123947	121
123958	126
124168	110
124179	114
124382	99
124393	95
124590	103
124602	101
124799	103
124811	99
125000	112
125011	112
125201	103
125213	115
125392	114
125404	119
125578	130
125590	132
125770	130
125782	136
125988	146
125999	148
126231	144
126243	140
126474	140
126486	135
126704	115
126715	117
126917	126
126928	128
127113	139
127125	141
127303	154
127314	151
127498	150
127509	141
127690	46
127702	-417
127886	170
127898	173
128086	119
128098	111
128273	37
128285	35
128457	24
128469	27
128652	45
128664	48
128858	118
128870	119
129065	133
129077	128
129262	107
129274	108
129468	93
129479	86
129693	70
129705	64
129895	-21
129907	-5
130093	0
130105	15
130280	56
130292	63
130460	67
130472	79
130639	89
130651	96
130824	81
130836	82
131011	97
131022	107
131193	146
131205	144
131372	147
131384	154
131558	152
131569	162
131756	148
131767	154
131964	154
131976	152
132192	155
132203	157
132402	172
132414	168
132612	158
132623	157
132818	150
132830	143
133015	159
133027	146
133206	155
133217	159
133409	148
133421	150
133621	126
133633	133
133828	78
133840	79
134036	157
134048	170
134245	195
134257	191
134441	201
134453	213
134631	165
134643	154
134821	-134
134832	-144
144035	24503
157630	9448
157642	8747
157663	11768
157696	11706
180015	139
180027	133
180219	121
180231	117
180435	103
180446	110
180656	147
180668	155
180873	158
180885	151
181112	133
181124	132
181350	100
181362	99
181573	151
181585	143
181778	130
181790	133
181981	104
181993	99
182198	125
182209	114
182400	119
182412	130
182603	110
182615	118
182805	96
182817	86
182996	130
183008	140
183187	137
183198	151
183417	112
183429	119
183675	92
183687	96
183943	96
183954	82
184205	67
184217	64
184451	38
184463	33
184666	100
184677	104
184866	114
184878	122
185071	79
185083	92
185283	130
185295	143
185488	144
185500	159
185709	126
185720	151
185952	165
185963	146
186192	151
186204	146
186438	104
186450	101
186707	117
186719	119
186936	143
186948	150
187165	147
187176	124
187393	95
187405	88
187616	93
187628	108
187825	118
187837	121
188032	137
188044	146
188262	136
188273	146
188508	126
188520	137
188747	114
188758	95
188978	124
188990	130
189190	152
189202	146
189397	130
189409	124
189609	110
189621	118
189823	141
189835	133
190047	104
190059	90
190262	92
190274	99
190466	135
190478	141
190665	151
190677	168
190872	163
190884	170
191086	151
191098	141
191298	154
191309	169
191506	111
191517	111
191703	114
191714	141
191888	170
191900	169
192078	139
192089	155
192277	118
192289	118
192493	110
192505	108
192723	82
192734	92
192961	77
192972	89
193196	59
193208	67
193415	66
193427	63
193616	93
193628	104
193811	104
193823	110
194014	95
194025	115
194222	104
194234	108
194445	99
194457	100
194672	90
194684	93
194885	92
194897	100
195080	174
195092	154
195266	143
195277	137
195456	90
195468	71
195658	68
195670	75
195857	39
195869	48
196044	89
196055	96
196233	126
196245	126
196438	118
196449	136
196654	104
196666	107
196881	79
196893	70
197088	130
197100	139
197279	137
197291	154
197473	139
197484	144
197698	112
197710	115
197933	111
197944	103
198152	119
198164	114
198373	104
198385	97
198627	79
198639	78
198883	85
198895	86
199132	75
199143	68
199361	112
199373	112
199573	112
199585	104
199803	104
199814	88
200052	104
200064	86
200316	89
200328	95
200568	86
200580	92
200809	63
200821	71
201031	107
201043	117
201237	118
201249	126
201452	124
201464	114
201679	106
201690	121
201909	67
201921	66
202133	92
202145	92
202341	97
202353	100
202557	85
202569	96
202780	62
202791	64
202993	57
203005	52
203191	38
203203	57
203378	122
203390	122
203572	74
203583	77
203794	89
203806	88
204034	86
204046	85
204283	86
204295	90
204522	92
204533	86
204750	89
204762	86
204969	128
204980	143
205168	165
205180	177
205366	154
205378	150
205587	157
205599	152
205829	157
205841	148
206081	161
206093	154
206324	112
206336	121
206554	135
206566	122
206761	132
206773	137
206967	103
206979	100
207183	81
207195	82
207396	110
207408	111
207608	130
207620	122
207833	103
207845	99
208063	108
208074	96
208279	115
208291	117
208497	130
208509	118
208737	68
208748	78
208960	107
208971	107
209175	130
209187	117
209413	128
209424	106
209653	92
209664	93
209889	92
209901	100
210102	112
210113	136
210302	125
210314	124
210512	126
210523	124
210726	115
210737	122
210931	148
210943	163
211132	177
211143	188
211354	174
211366	170
211587	159
211599	155
211802	154
211814	155
212017	154
212029	152
212259	99
212271	107
212495	144
212507	135
212705	161
212716	162
212908	165
212919	151
213139	154
213151	162
213389	133
213401	135
213629	110
213640	85
213859	75
213871	79
214072	107
214084	115
214277	133
214288	121
214494	143
214506	135
214732	146
214744	135
214975	110
214986	119
215223	110
215234	104
215453	136
215465	136
215671	147
215682	158
215907	152
215919	151
216152	157
216164	147
216383	179
216395	188
216607	202
216618	187
216845	188
216857	174
217082	130
217093	106
217311	117
217323	118
217528	151
217540	157
217744	168
217756	163
217976	111
217988	97
218207	130
218218	119
218420	143
218432	152
218634	143
218646	143
218882	158
218894	159
219136	128
219148	125
219372	111
219383	108
219582	152
219594	135
219780	15
219791	77
219982	128
219993	96
220193	63
220205	66
220392	141
220403	159
220579	187
220590	205
220762	201
220774	220
220956	214
220968	214
221189	206
221201	198
221438	181
221450	181
221701	173
221712	176
221948	165
221959	154
222196	133
222208	146
222419	157
222430	155
222629	143
222641	146
222848	155
222859	150
223079	115
223091	112
223307	124
223319	132
223527	141
223539	141
223735	161
223747	157
223950	124
223962	125
224187	132
224198	144
224438	132
224450	124
224666	101
224678	110
224892	115
224903	111
225099	121
225111	139
225296	118
225308	122
225500	114
225512	115
225729	100
225740	115
225949	89
225960	107
226164	115
226176	110
226372	144
226384	146
226571	154
226582	159
226775	147
226787	147
227005	143
227016	139
227225	124
227236	112
227435	121
227446	121
227631	130
227643	133
227821	159
227832	154
228014	161
228026	173
228220	158
228232	150
228425	144
228437	141
228641	99
228653	86
228850	81
228862	71
229045	143
229056	146
229230	165
229241	150
229423	144
229435	157
229630	147
229641	139
229835	114
229846	121
230052	62
230063	93
230254	112
230266	100
230453	114
230465	114
230665	144
230676	161
230895	157
230906	151
231122	176
231133	173
231337	162
231349	157
231545	129
231557	129
231741	159
231753	162
231929	172
231940	172
232115	165
232126	166
232311	168
232322	163
232519	147
232531	136
232738	112
232750	92
232951	115
232962	135
233155	132
233167	132
233367	146
233379	147
233602	140
233614	140
233823	126
233834	133
234044	117
234055	110
234251	151
234263	152
234449	161
234460	154
234654	151
234666	150
234873	111
234884	121
235091	96
235103	93
235312	108
235324	110
235516	154
235528	157
235718	143
235730	147
235938	-163
235950	-164
236176	143
236187	157
236416	129
236427	118
236642	140
236654	151
236853	187
236865	184
237064	181
237076	168
237286	173
237298	162
237518	166
237530	163
237736	208
237748	203
237960	170
237971	168
238199	130
238210	108
238432	141
238444	119
238652	168
238664	157
238876	141
238888	133
239114	121
239125	110
239352	97
239364	92
239583	104
239595	117
239796	126
239807	146
240018	106
240030	100
240246	78
240257	81
240455	107
240467	85
240653	162
240665	154
240854	173
240865	198
241074	155
241086	157
241298	141
241310	140
241512	155
241523	162
241723	152
241735	139
241957	146
241969	143
242189	122
242200	108
242421	106
242433	96
242642	144
242653	148
242849	165
242861	174
243063	163
243075	157
243276	132
243288	125
243489	126
243500	117
243693	146
243704	137
243896	126
243907	122
244104	90
244116	90
244325	85
244336	89
244547	115
244559	97
244759	144
244771	140
244975	141
244987	135
245220	119
245232	112
245471	110
245482	112
245703	139
245714	147
245936	117
245948	118
246173	132
246185	133
246397	168
246409	176
246616	173
246628	168
246851	170
246862	155
247099	148
247110	157
247325	206
247337	191
247549	201
247560	214
247788	201
247800	188
248036	180
248048	181
248292	166
248304	158
248533	141
248545	146
248757	148
248768	168
248976	157
248987	155
249205	169
249216	165
249438	151
249450	152
249665	130
249677	133
249875	159
249887	159
250085	144
250097	146
250310	119
250322	125
250542	111
250554	110
250767	125
250779	125
250982	136
250993	144
251206	143
251217	154
251427	133
251439	139
251659	144
251671	140
251885	147
251896	157
252109	150
252120	154
252349	136
252361	132
252582	128
252594	124
252815	136
252827	143
253027	162
253039	159
253240	172
253251	172
253477	152
253488	161
253699	136
253710	125
253923	114
253934	119
254151	148
254163	155
254366	174
254378	173
254609	150
254620	152
254878	114
254890	107
255112	130
255123	130
255331	130
255343	119
255572	108
255584	104
255810	115
255822	115
256036	139
256048	132
256276	97
256288	97
256506	95
256518	88
256722	124
256734	114
256940	150
256951	136
257179	143
257190	152
257406	174
257418	157
257618	173
257629	190
257826	141
257838	150
258053	166
258065	154
258306	139
258318	128
258542	128
258553	147
258754	163
258765	184
258971	168
258983	179
259206	157
259218	152
259457	121
259468	128
259692	106
259703	110
259908	117
259920	129
260136	119
260148	115
260378	114
260390	119
260619	114
260631	115
260850	129
260862	129
261072	128
261084	126
261317	118
261328	126
261570	114
261582	117
261809	130
261821	124
262027	133
262039	129
262259	77
262270	63
262500	74
262512	79
262726	117
262738	117
262967	85
262979	73
263208	93
263220	104
263429	146
263441	137
263671	147
263683	140
263923	125
263934	124
264162	100
264174	103
264380	124
264392	119
264618	139
264630	136
264878	155
264889	168
265144	141
265156	143
265380	146
265392	141
265607	125
265619	129
265844	100
265856	108
266079	108
266091	104
266309	169
266321	170
266544	141
266555	152
266789	150
266801	151
267015	140
267027	144
267258	114
267270	96
267490	106
267501	122
267714	117
267726	114
267960	112
267972	108
268211	88
268223	107
268434	141
268445	122
268650	139
268662	129
268886	141
268897	146
269142	152
269154	141
269387	100
269398	99
269600	184
269612	158
269799	163
269811	144
297486	31839
297498	32767
297501	32767
297536	-32768
297576	32767
297589	32767
297669	32767
315032	119
315043	177
315282	111
315293	152
315545	75
315557	99
315801	136
315813	132
316043	92
316055	103
316274	57
316286	67
316485	154
316497	168
316689	133
316700	121
316901	125
316912	63
317113	122
317125	96
317318	141
317329	90
317545	57
317556	118
317799	62
317810	122
318057	37
318069	62
318302	53
318314	82
318520	68
318531	82
318749	50
318761	48
318991	57
319003	46
319234	97
319246	82
319457	53
319468	121
319663	118
319675	97
319872	99
319883	48
320086	48
320098	60
320301	104
320313	95
320510	135
320522	118
320738	114
320750	99
320983	77
320995	46
321210	108
321222	130
321430	119
321442	90
321664	75
321675	56
321887	50
321899	42
322109	85
322120	30
322334	75
322346	59
322551	115
322562	59
322772	82
322784	59
323001	63
323013	57
323218	77
323229	75
323432	33
323444	42
323648	13
323659	57
323869	-27
323880	17
324070	-40
324081	-7
324277	34
324289	64
324470	85
324481	126
324667	144
324679	129
324890	130
324901	155
325118	154
325129	108
325354	106
325366	92
325588	133
325599	93
325818	96
325830	108
326045	74
326056	86
326256	112
326268	125
326469	82
326481	101
326687	68
326699	63
326900	110
326911	86
327109	111
327121	97
327328	60
327340	73
327553	66
327564	111
327766	106
327778	97
327978	92
327990	84
328204	78
328216	56
328423	20
328434	68
328633	86
328645	68
328842	114
328854	101
329065	79
329076	125
329284	128
329296	118
329500	78
329511	66
329701	140
329713	135
329900	110
329912	99
330114	137
330125	107
330342	114
330354	90
330566	81
330578	67
330771	166
330782	125
330964	152
330975	170
331158	124
331170	108
331362	99
331373	86
331572	135
331584	133
331777	118
331788	151
332000	106
332012	84
332229	85
332241	64
332447	135
332458	93
332663	118
332674	82
332901	96
332913	106
333148	55
333159	101
333377	88
333389	114
333608	88
333620	70
333862	67
333873	70
334092	115
334104	95
334318	101
334329	71
334542	107
334553	89
334756	132
334768	139
334991	60
335003	66
335225	86
335237	86
335450	125
335461	95
335691	60
335702	71
335929	108
335941	101
336160	150
336171	128
336406	136
336417	119
336647	144
336659	126
336869	155
336881	165
337094	135
337106	141
337337	96
337349	108
337565	148
337577	157
337794	99
337805	130
338033	82
338045	75
338254	110
338266	96
338482	82
338494	88
338724	74
338736	81
338942	114
338954	95
339146	107
339158	92
339349	88
339361	99
339573	115
339584	126
339808	68
339820	63
340046	75
340058	52
340287	70
340298	45
340511	49
340522	92
340728	15
340740	23
340937	77
340948	77
341131	110
341142	125
341327	104
341339	128
341532	100
341544	108
341742	114
341753	77
341941	126
341953	121
342140	88
342151	114
342339	103
342350	97
342532	121
342544	119
342740	124
342752	130
342961	122
342973	114
343181	118
343192	150
343415	104
343426	135
343636	48
343648	44
343840	86
343852	119
344033	144
344044	115
344227	117
344239	141
344431	133
344443	150
344639	133
344650	144
344849	74
344861	74
345055	93
345066	135
345252	136
345264	144
345454	169
345465	140
345664	139
345676	146
345890	132
345901	143
346123	75
346134	95
346336	139
346347	152
346543	135
346554	151
346738	170
346749	162
346934	114
346945	84
347123	92
347134	192
347303	219
347315	213
347488	181
347500	195
347683	1169
347694	854
347876	158
347888	166
348065	179
348077	165
348262	206
348273	191
348468	198
348480	202
348679	208
348691	210
348899	197
348911	187
349121	202
349133	194
349340	161
349351	187
349565	141
349577	148
349781	106
349793	101
349984	146
349996	165
350179	159
350191	154
350376	34
350388	49
350562	4104
350574	2177
350742	398
350754	373
350917	588
350929	687
351092	478
351104	483
351271	523
351283	530
351471	511
351483	498
351679	412
351691	392
351889	332
351900	323
352135	238
352147	210
352394	140
352406	126
352652	86
352663	111
352892	46
352903	23
353119	17
353130	41
353341	92
353353	75
353546	135
353558	122
353758	146
353769	152
353980	174
353992	180
354203	187
354215	201
354422	212
354434	208
354643	186
354654	183
354857	216
354868	250
355062	239
355074	235
355284	210
355295	186
355521	225
355532	210
355744	221
355756	231
355984	183
355996	173
356227	208
356238	199
356452	220
356463	206
356695	147
356706	163
356923	205
356935	203
357134	216
357146	208
357361	137
357372	161
357583	190
357594	181
357798	201
357809	201
358028	146
358040	151
358258	180
358269	198
358482	187
358493	190
358721	125
358732	130
358965	159
358977	158
359199	174
359210	188
359432	143
359444	155
359668	163
359680	159
359889	183
359900	173
360111	161
360122	177
360354	151
360365	146
360599	92
360611	97
360845	136
361049	133
361060	159
361270	82
361281	99
361493	141
361504	112
361706	159
361717	146
361931	137
361943	144
362173	100
362185	106
362403	111
362414	135
362621	144
362633	148
362837	111
362849	110
363052	132
363064	154
363270	259
363282	333
363494	191
363505	231
363709	188
363721	179
363929	163
363941	166
364129	169
364141	173
364320	144
364332	158
364515	115
364527	136
364732	101
364743	130
364955	117
364967	124
365187	79
365199	64
365415	55
365427	68
365641	66
365652	55
365851	67
365862	50
366054	37
366066	27
366253	57
366264	90
366441	57
366453	63
366634	90
366646	90
366844	82
366855	92
367076	85
367087	89
367328	59
367340	44
367573	34
367584	55
367814	45
367826	50
368032	73
368043	108
368238	112
368249	84
368449	64
368460	82
368656	96
368667	122
368864	124
368876	122
369090	68
369101	96
369337	63
369348	73
369594	70
369606	67
369831	55
369843	63
370058	85
370070	79
370266	111
370277	96
370469	75
370480	106
370693	86
370704	101
370945	82
370957	74
371190	70
371202	75
371420	63
371431	68
371633	106
371645	93
371834	110
371845	92
372033	88
372045	79
372255	90
372267	101
372504	92
372516	81
372746	88
372758	79
372986	73
372998	70
373207	108
373219	108
373416	112
373428	103
373628	86
373640	79
373855	106
373867	115
374070	129
374082	125
374278	111
374290	111
374509	111
374521	111
374731	86
374743	96
374960	41
374971	66
375187	93
375199	74
375398	70
375410	78
375612	74
375623	53
375835	53
375847	70
376060	110
376071	139
376286	99
376298	92
376526	100
376537	86
376761	119
376773	126
376987	100
376998	96
377231	95
377242	104
377461	99
377472	124
377702	68
377714	75
377941	110
377953	100
378166	106
378177	95
378406	84
378417	99
378631	84
378642	100
378847	147
378858	146
379054	166
379065	150
379275	157
379287	137
379515	126
379526	144
379785	125
379797	128
380050	115
380061	99
380312	90
380324	100
380544	117
380556	126
380768	122
380780	132
381000	125
381012	114
381221	129
381233	118
381447	117
381458	114
381695	110
381706	108
381931	78
381943	93
382166	70
382177	86
382395	75
382407	90
382617	63
382629	50
382837	8
382848	68
383045	150
383057	147
383262	183
383273	230
383472	194
383483	198
383669	205
383681	231
383861	191
383873	187
384065	170
384077	177
384279	166
384291	154
384509	158
384520	122
384742	141
384754	135
384968	133
384979	117
385195	110
385206	148
385411	154
385422	187
385621	147
385632	143
385831	154
385843	159
386042	159
386054	148
386277	140
386289	157
386538	168
386550	146
386805	157
386816	128
387070	110
387081	119
387308	150
387320	146
387536	124
387548	130
387768	144
387779	114
387985	147
387996	137
388185	183
388197	195
388387	152
388398	177
388601	172
388612	157
388838	155
388849	139
389072	132
389083	122
389300	192
389312	186
389388	-7682
389398	-9033
389408	-9310
389451	-11419
389455	-11147
389511	-5363
389522	-5024
389708	-2984
389719	-2758
389898	-339
389909	-93
390086	760
390097	1266
390278	1038
390290	1055
390463	1041
390475	1005
390650	699
390662	746
390834	987
390846	1043
391011	773
391022	848
391184	832
391196	761
391355	636
391367	580
391525	356
391537	345
391693	230
391705	292
391861	388
391873	392
392031	270
392043	289
392204	259
392216	253
392374	274
392386	278
392545	305
392557	305
392720	301
392731	325
392899	323
392911	319
393097	155
393282	319
393468	278
393678	249
393891	259
394113	242
394336	260
394528	241
394540	237
394733	191
394745	181
394941	155
394952	152
395141	176
395153	166
395336	155
395347	186
395541	139
395553	133
395755	159
395766	146
395963	173
395975	163
396181	129
396193	141
396437	88
396448	86
396673	110
396684	119
396893	121
396905	117
397118	78
397129	57
397349	59
397361	67
397572	108
397769	71
397781	77
398010	38
398022	46
398252	74
398263	92
398472	117
398484	115
398699	49
398711	50
398931	88
398943	104
399143	107
399155	101
399368	89
399566	63
399577	84
399779	63
399791	63
400007	132
400202	144
400213	137
400425	85
400437	75
400674	2
400686	8
400903	37
400914	55
401117	56
401128	38
401334	30
401346	16
401556	12
401567	12
401767	30
401779	31
401973	42
401985	56
402185	57
402196	34
402403	26
402415	38
402635	20
402646	4
402854	30
402866	30
403064	60
403076	60
403280	19
403292	12
403498	15
403509	0
403702	39
403713	35
403907	23
403918	38
404136	4
404147	22
404370	-6
404382	-6
404593	53
404605	52
404805	63
404817	56
405023	49
405035	46
405239	34
405250	20
405448	73
405460	82
405658	75
405669	99
405879	74
405890	88
406129	55
406141	57
406368	46
406380	38
406598	71
406610	68
406813	85
406825	75
407027	68
407039	77
407237	37
407249	46
407444	79
407455	78
407645	81
407657	95
407851	99
407863	89
408069	92
408080	75
408282	64
408294	64
408501	33
408512	33
408704	97
408716	103
408893	132
408904	122
409092	95
409104	101
409302	82
409314	95
409524	46
409536	52
409752	63
409764	66
409985	68
409997	67
410200	64
410212	57
410416	78
410427	104
410635	117
410646	111
410866	82
410877	108
411082	128
411093	162
411300	95
411312	88
411498	129
411510	112
411689	235
411700	223
411882	136
411893	155
412079	139
412091	133
412268	165
412280	179
412458	124
412470	135
412653	73
412665	78
412858	60
412870	55
413051	82
413063	85
413250	63
413262	55
413464	78
413476	81
413705	84
413716	56
413949	66
413961	68
414208	46
414220	46
414454	12
414466	11
414690	39
414702	46
414905	73
414916	66
415119	71
415131	86
415341	82
415352	95
415578	88
415590	88
415814	130
415825	126
416032	121
416043	137
416260	118
416272	119
416501	103
416513	99
416741	106
416753	107
416970	107
416981	126
417216	85
417227	104
417470	67
417482	74
417707	73
417719	82
417944	74
417956	78
418194	81
418205	85
418446	38
418458	38
418689	115
418701	128
418910	180
418922	194
419120	169
419132	201
419342	133
419354	141
419573	144
419584	128
419800	95
419812	107
420008	136
420020	144
420206	135
420217	146
420408	139
420420	140
420619	143
420630	128
420836	188
420847	176
421052	150
421064	140
421264	148
421276	155
421457	220
421468	228
421644	-80
421655	57
421840	239
421852	239
422060	213
422071	213
422285	195
422297	194
422500	235
422512	242
422705	184
422717	187
422925	128
422937	133
423158	93
423170	100
423382	119
423394	126
423591	115
423603	121
423808	99
423820	103
424035	84
424047	67
424255	103
424267	108
424478	111
424490	106
424723	92
424735	81
424954	126
424966	119
425196	103
425208	101
425465	86
425476	77
425702	118
425714	114
425947	97
425958	100
426192	122
426204	132
426418	135
426430	128
426659	110
426671	111
426905	112
426916	118
427134	150
427145	163
427361	157
427372	146
427599	128
427611	132
427826	150
427838	150
428043	148
428055	151
428279	139
428291	135
428539	122
428550	132
428795	126
428807	122
429040	144
429052	143
429260	159
429272	154
429486	154
429498	152
429716	140
429728	140
429945	155
429957	151
430157	170
430169	165
430384	155
430396	159
430625	157
430636	150
430863	184
430874	177
431091	161
431103	158
431331	126
431343	124
431562	169
431573	163
431791	169
431803	161
432019	155
432031	159
432249	201
432261	202
432476	176
432488	183
432715	155
432727	147
432941	177
432952	162
433177	135
433189	129
433424	141
433436	137
433655	130
433667	137
433892	107
433904	108
434127	110
434139	111
434345	121
434357	117
434576	100
434587	88
434797	103
434809	129
435003	103
435015	114
435204	75
435216	68
435414	104
435426	112
435620	148
435632	144
435819	121
435830	135
436037	93
436049	92
436267	75
436279	82
436490	100
436502	106
436711	86
436723	86
436952	93
436964	97
437183	151
437195	152
437407	170
437419	168
437660	139
437671	150
437917	146
437928	132
438158	173
438170	165
438385	166
438397	173
438630	162
438641	151
438859	187
438871	190
439087	173
439099	166
439334	163
439345	155
439572	163
439584	157
439827	104
439839	107
440071	165
440083	162
440298	155
440310	148
440549	125
440561	119
440812	129
440824	129
441059	163
441071	168
441303	122
441314	130
441555	147
441566	132
441790	180
441801	190
442017	159
442029	150
442271	115
442283	111
442531	129
442543	133
442767	150
442779	146
443008	144
443020	146
443259	165
443271	157
443503	184
443515	187
443763	154
443774	140
444009	-195
444020	-440
444229	-105
444241	-101
444438	24
444450	49
444646	104
444658	108
444862	111
444873	148
445067	107
445078	110
445281	137
445293	137
445482	135
445494	141
445691	139
445702	146
445920	152
445931	158
446156	176
446168	174
446379	180
446391	181
446606	157
446617	158
446819	192
446831	198
447028	177
447039	184
447247	173
447259	168
447474	179
447486	181
447716	186
447728	190
447955	181
447967	180
448198	173
448209	163
448430	179
448442	183
448641	198
448652	194
448859	159
448871	170
449086	166
449098	159
449309	194
449320	199
449531	176
449543	179
449778	148
449790	147
450021	154
450033	151
450254	129
450266	125
450505	122
450516	125
450754	122
450765	119
451003	122
451014	115
451233	135
451244	140
451470	111
451482	111
451713	119
451725	126
451935	141
451947	126
452149	68
452160	82
452349	50
452360	68
452537	92
452548	101
452727	165
452739	183
452917	177
452929	187
453115	143
453127	148
453346	135
453357	124
453578	148
453590	155
453793	148
453804	161
454016	154
454028	148
454236	147
454248	137
454444	129
454456	129
454649	103
454660	106
454850	122
454862	135
455047	151
455059	169
455242	170
455254	174
455452	165
455463	180
455676	165
455687	163
455936	125
455947	132
456172	155
456183	163
456394	146
456406	152
456634	130
456645	122
456880	163
456892	163
457114	187
457126	190
457351	139
457363	136
457586	97
457597	100
457811	96
457823	84
458023	79
458034	96
458240	129
458252	132
458448	195
458460	205
458656	195
458668	203
458877	172
458889	172
459107	191
459119	194
459328	173
459340	173
459573	137
459585	144
459811	158
459822	161
460033	148
460045	148
460271	111
460283	110
460499	135
460510	143
460721	103
460732	111
460942	141
460953	130
461158	161
461170	163
461375	150
461387	139
461605	121
461616	117
461832	161
461843	159
462055	130
462067	124
462304	103
462315	110
462536	151
462548	157
462763	130
462774	143
463005	119
463016	132
463230	169
463241	172
463459	133
463471	137
463685	124
463696	129
463899	163
463910	159
464123	148
464134	140
464353	130
464365	137
464569	194
464580	179
464792	216
464803	223
465021	217
465032	227
465252	203
465264	201
465488	186
465500	191
465714	132
465726	137
465928	173
465939	179
466125	194
466137	194
466322	168
466334	177
466537	143
466549	139
466753	169
466765	163
466971	191
466982	176
467207	155
467219	150
467453	155
467464	168
467684	190
467696	187
467922	147
467934	146
468154	147
468166	158
468371	202
468383	199
468584	197
468595	192
468802	191
468814	184
469012	186
469024	180
469217	152
469228	157
469413	208
469424	210
469600	210
469611	217
469783	220
469795	219
469966	205
469977	217
470188	216
470199	214
470435	217
470447	212
470681	205
470692	195
470922	163
470934	158
471159	146
471171	152
471373	183
471385	184
471592	154
471603	163
471811	184
471823	195
472022	198
472034	206
472243	183
472254	174
472491	148
472502	155
472744	128
472756	119
473003	136
473015	148
473236	128
473248	136
473455	85
473467	99
473670	232
473681	275
473886	243
473897	314
474089	325
474101	307
474282	285
474293	293
474467	-3686
474478	-3123
474642	-654
474653	-589
474812	-222
474824	-174
474980	-49
474992	-34
475156	60
475167	68
475342	117
475354	133
475538	158
475549	174
475754	180
475766	186
476003	194
476015	202
476226	217
476238	224
476456	232
476468	230
476701	221
476713	228
476948	230
476959	224
477195	238
477206	230
477437	242
477449	243
477669	242
477680	239
477896	243
477908	257
478126	213
478137	224
478349	235
478360	238
478555	239
478566	246
478774	230
478786	230
479028	206
479039	195
479299	183
479310	169
479558	206
479570	203
479790	191
479801	194
480047	161
480059	166
480285	183
480297	195
480512	176
480524	163
480742	186
480754	187
480965	188
480976	195
481207	169
481218	176
481444	168
481455	173
481679	125
481691	141
481886	172
481898	179
482082	174
482093	176
482292	190
482303	186
482513	188
482525	191
482742	216
482753	205
482970	201
482982	195
483197	179
483209	192
483421	174
483433	173
483631	201
483642	208
483836	152
483847	169
484033	168
484044	173
484227	163
484239	181
484430	181
484442	179
484645	162
484657	165
484885	168
484896	165
485126	139
485137	136
485374	136
485386	141
485600	158
485612	159
485819	129
485830	148
486049	106
486061	100
486277	139
486289	141
486493	169
486505	168
486728	150
486739	173
486951	179
486962	172
487156	108
487167	117
487349	67
487360	111
487533	63
487545	74
487711	112
487723	126
487897	210
487908	203
488083	239
488094	252
488285	248
488297	249
488499	212
488510	209
488707	176
488718	190
488911	188
488922	223
489108	209
489120	214
489299	202
489310	217
489492	186
489504	186
489689	209
489701	225
489875	201
489887	203
490057	219
490069	231
490240	203
490252	208
490436	186
490448	190
490646	216
490658	223
490852	252
490864	250
491060	223
491071	227
491275	205
491287	201
491498	174
491509	158
491727	139
491739	130
491956	97
491967	99
492168	132
492180	148
492367	157
492379	163
492559	150
492571	155
492755	162
492767	179
492951	227
492962	238
493156	245
493167	232
493385	221
493396	220
493628	214
493639	199
493884	183
493896	179
494120	195
494132	194
494331	197
494343	197
494530	181
494541	197
494740	188
494752	192
495198	161
495209	155
495437	139
495448	130
495674	152
495686	157
495891	173
495903	177
496112	135
496124	136
496344	136
496356	140
496569	174
496581	176
496784	173
496796	179
497012	177
497024	177
497246	139
497258	139
497468	180
497480	165
497674	208
497686	214
497875	202
497887	208
498094	197
498106	198
498326	195
498338	194
498560	165
498571	162
498799	163
498811	155
499020	190
499032	186
499226	163
499238	165
499436	148
499448	141
499671	119
499683	121
499901	110
499913	106
500120	155
500131	165
500329	166
500341	163
500552	135
500563	122
500786	157
500798	159
501005	170
501017	174
501240	161
501251	154
501483	163
501494	170
501712	190
501724	192
501940	181
501952	176
502180	172
502192	172
502402	195
502413	192
502629	155
502641	150
502865	179
502877	174
503086	195
503098	202
503310	188
503322	176
503542	148
503554	148
503766	179
503777	187
503989	184
504000	172
504221	117
504233	110
504432	60
504444	95
504628	53
504640	90
504814	93
504825	114
504993	166
505005	172
505165	176
505177	227
505333	214
505345	249
505500	212
505512	228
505669	219
505681	225
505846	208
505858	217
506028	209
506040	225
506214	199
506226	203
506396	181
506408	205
506581	198
506593	199
506772	188
506784	190
506967	192
506978	208
507160	187
507171	190
507355	179
507367	173
507561	152
507572	158
507772	150
507783	144
507981	100
507993	103
508172	108
508184	137
508349	303
508361	304
508521	257
508532	279
508688	250
508700	278
508858	245
508870	248
509053	214
509065	208
509310	154
509321	151
509551	135
509563	133
509821	108
509833	100
510072	111
510084	99
510345	93
510356	97
510615	84
510626	77
510854	79
510866	74
511075	89
511086	99
511281	119
511293	133
511478	135
511489	133
511682	129
511694	139
511912	136
511924	132
512165	107
512177	111
512399	117
512411	119
512605	148
512617	157
512806	157
512818	155
513014	143
513025	146
513221	103
513233	92
513414	103
513426	158
513600	128
513611	135
513779	173
513791	152
513956	-716
513967	-546
514128	-133
514140	-144
514307	-54
514319	-39
514485	-7
514497	-7
514665	12
514676	44
514857	52
514869	63
515067	85
515079	81
515274	95
515285	106
515486	115
515497	136
515694	203
515706	199
515898	198
515910	199
516103	213
516114	224
516309	225
516321	231
516516	195
516527	191
516715	275
516727	299
516903	296
516915	282
517086	260
517097	279
517268	245
517279	250
517469	210
517481	217
517698	191
517710	191
517939	179
517950	150
518176	158
518188	151
518409	133
518420	122
518656	126
518668	115
518886	73
518897	70
519099	92
519111	104
519296	140
519308	150
519489	172
519501	173
519696	163
519707	154
519922	150
519934	144
520172	125
520184	121
520412	70
520423	75
520630	137
520642	139
520834	150
520845	148
521042	118
521053	117
521248	88
521259	85
521444	81
521456	85
521632	81
521644	74
521818	89
521829	95
521994	181
522006	210
522169	237
522181	245
522342	242
522353	279
522521	230
522532	227
522745	210
522756	198
522987	202
522999	195
523221	-65
523233	-221
523438	-421
523449	-922
523635	-76
523647	-82
523817	-189
523829	-178
523996	-85
524008	-65
524174	13
524185	27
524357	90
524369	96
524554	126
524566	136
524754	169
524766	169
524957	188
524969	191
525172	209
525184	212
525393	234
525405	227
525594	119
525606	143
525782	174
525794	172
525965	205
525977	227
526142	1191
526153	1022
526321	325
526333	332
526502	282
526513	299
526698	263
526710	264
526933	232
526944	221
527175	206
527186	198
527425	199
527437	192
527678	181
527690	184
527922	159
527934	159
528149	155
528160	150
528377	128
528388	133
528596	144
528607	154
528805	143
528817	163
529009	125
529021	129
529205	100
529216	119
529388	201
529400	210
529565	267
529577	246
529737	246
529749	249
529922	237
529934	246
530107	181
530118	186
530290	136
530302	135
530492	148
530504	150
530704	184
530716	177
530913	169
530924	154
531133	152
531144	150
531367	148
531379	140
531588	148
531599	136
531813	141
531824	139
532029	119
532041	111
532239	117
532251	108
532440	144
532452	154
532632	157
532644	168
532836	157
532847	176
533072	144
533083	143
533327	129
533339	130
533592	130
533604	111
533852	124
533863	121
534111	125
534123	129
534373	110
534385	107
534614	84
534626	101
534836	117
534848	122
535051	132
535063	126
535290	74
535302	73
535506	111
535518	128
535708	198
535720	198
535907	147
535919	150
536102	187
536113	192
536288	140
536299	154
536479	216
536491	230
536671	305
536683	299
536881	259
536893	249
537125	209
537136	208
537363	203
537375	187
537595	152
537606	148
537834	139
537846	124
538059	181
538071	169
538283	136
538295	137
538513	133
538525	126
538737	165
538749	174
538952	174
538964	184
539180	161
539192	157
539420	154
539432	148
539660	137
539672	151
539885	180
539896	165
540100	139
540112	139
540327	136
540339	132
540545	170
540557	190
540754	179
540766	183
540967	168
540979	174
541197	179
541209	173
541426	140
541437	126
541645	148
541657	166
541853	173
541865	186
542071	150
542083	148
542302	162
542313	141
542538	168
542549	177
542758	198
542769	192
542971	162
542983	168
543193	143
543205	132
543431	162
543442	162
543649	183
543660	180
543871	157
543882	170
544099	143
544111	157
544321	161
544332	179
544533	170
544545	177
544768	152
544779	154
545000	183
545012	194
545217	192
545229	197
545441	184
545453	187
545674	176
545685	157
545908	136
545920	147
546129	177
546141	192
546339	180
546350	208
546569	161
546580	146
546803	163
546814	150
547038	162
547049	174
547252	188
547264	181
547472	163
547483	180
547703	165
547714	152
547937	195
547948	181
548155	177
548167	177
548391	144
548403	148
548651	157
548663	154
548881	166
548893	165
549118	139
549130	148
549354	158
549366	158
549570	172
549582	172
549778	135
549790	146
549981	157
549992	166
550182	166
550194	154
550409	165
550421	172
550629	186
550640	158
550870	135
550882	128
551098	147
551110	150
551311	162
551323	161
551534	188
551546	194
551771	191
551783	191
552003	190
552015	194
552214	197
552226	209
552424	165
552435	188
552635	136
552647	143
552832	59
552844	77
553031	279
553042	261
553219	186
553230	287
553402	518
553414	515
553584	384
553595	383
553766	276
553777	271
553953	172
553965	177
554152	129
554163	146
554347	110
554359	122
554556	99
554567	119
554773	90
554785	85
555006	78
555018	77
555241	78
555253	75
555474	64
555485	75
555697	78
555709	71
555910	100
555921	104
556111	118
556123	126
556313	99
556325	101
556527	126
556538	122
556730	162
556742	157
556947	135
556959	140
557186	129
557198	135
557417	151
557429	151
557647	150
557658	129
557893	141
557905	141
558122	150
558134	155
558336	203
558348	195
558544	201
558555	139
558746	369
558758	372
558932	333
558944	338
559117	201
559129	220
559300	34
559312	70
559481	197
559493	202
559656	263
559668	249
559827	237
559838	225
560001	224
560013	237
560202	217
560213	210
560424	195
560435	194
560655	150
560666	147
560878	122
560889	128
561096	158
561107	169
561300	155
561311	173
561511	165
561523	172
561732	168
561744	170
561953	165
561965	168
562177	151
562189	148
562413	136
562425	141
562645	152
562657	159
562873	154
562885	155
563091	143
563103	150
563306	130
563318	135
563510	180
563522	183
563715	181
563727	180
563937	155
563948	146
564182	140
564194	136
564410	166
564422	179
564643	140
564655	128
564899	128
564911	125
565128	155
565140	150
565366	129
565378	121
565590	132
565601	125
565804	170
565816	177
566013	155
566024	166
566236	108
566247	92
566466	135
566477	124
566682	135
566694	137
566898	96
566909	106
567118	85
567130	92
567330	124
567341	124
567531	110
567542	115
567732	73
567744	78
567924	122
567936	143
568110	163
568121	186
568295	161
568306	157
568485	144
568496	162
568671	158
568683	163
568871	150
568883	152
569100	151
569112	152
569337	158
569349	154
569547	148
569558	143
569737	148
569749	144
569915	111
569926	133
570086	170
570098	190
570255	174
570266	181
570423	151
570435	168
570603	147
570614	152
570806	144
570818	151
571015	177
571027	183
571217	199
571229	197
571442	179
571453	162
571703	135
571715	137
571948	135
571960	143
572188	135
572200	130
572433	129
572445	128
572668	97
572680	99
572904	92
572916	93
573127	135
573138	150
573339	143
573351	150
573545	128
573557	135
573754	111
573765	117
573960	129
573972	124
574155	186
574167	202
574343	208
574355	216
574538	190
574550	183
574756	198
574767	179
574973	184
574985	187
575209	148
575221	143
575433	115
575445	119
575649	184
575661	199
575847	195
575859	181
576040	155
576052	161
576240	163
576252	169
576469	146
576481	146
576684	115
576695	128
576899	97
576910	100
577108	159
577119	191
577298	202
577310	210
577492	174
577503	186
577726	169
577737	169
577985	165
577996	155
578248	151
578260	136
578515	136
578526	125
578765	139
578776	137
579016	150
579028	161
579256	140
579268	130
579480	129
579491	147
579686	152
579698	161
579893	129
579905	132
580113	136
580125	151
580357	159
580368	148
580604	132
580616	136
580832	168
580844	162
581035	179
581047	183
581228	161
581240	161
581425	141
581436	158
581643	172
581655	176
581837	187
581849	206
582036	179
582047	170
582236	157
582247	155
582444	201
582456	197
582643	186
582655	187
582861	166
582873	165
583106	155
583118	152
583342	143
583353	146
583565	128
583577	125
583772	151
583784	163
583969	158
583980	172
584171	157
584182	155
584390	133
584401	135
584606	115
584618	122
584821	147
584833	158
585028	177
585040	177
585229	195
585240	190
585444	177
585455	174
585684	168
585695	168
585929	150
585940	137
586159	128
586170	129
586381	110
586392	128
586594	133
586606	126
586807	115
586819	111
587047	110
587059	114
587277	99
587288	108
587526	77
587538	74
587818	67
587830	66
588092	73
588104	73
588332	114
588344	125
588559	122
588571	115
588799	118
588811	125
589059	117
589070	104
589305	124
589317	125
589518	154
589530	169
589723	124
589735	133
589927	121
589939	132
590125	162
590137	172
590322	161
590333	154
590529	141
590540	154
590758	126
590770	135
590984	97
590996	88
591194	97
591206	107
591385	100
591397	111
591577	155
591589	150
591767	154
591779	161
591972	144
591984	140
592205	130
592216	132
592432	139
592444	130
592662	129
592674	124
592878	174
592890	170
593088	155
593100	165
593313	141
593325	139
593546	130
593558	130
593773	125
593785	114
594002	125
594013	122
594212	183
594224	187
594415	172
594426	168
594625	163
594636	166
594830	141
594842	140
595021	125
595033	143
595201	126
595213	144
595388	169
595400	183
595571	183
595583	197
595764	169
595775	188
596063	135
596075	130
596354	163
596365	146
596625	137
596636	124
596909	118
596921	121
597186	84
597197	97
597437	128
597449	133
597653	157
597665	152
597873	128
597885	130
598100	141
598111	130
598332	106
598344	100
598554	161
598565	158
598772	166
598783	163
599016	150
599028	143
599264	188
599275	181
599488	203
599500	195
599722	172
599734	173
599956	188
599967	190
600175	205
600187	199
600404	195
600416	197
600646	174
600658	177
600878	194
600890	198
601090	188
601102	192
601318	146
601330	143
601559	115
601570	112
601796	133
601807	130
602031	101
602043	104
602276	82
602288	79
602511	104
602523	111
602742	101
602753	96
602987	74
602999	78
603239	112
603250	99
603469	143
603481	148
603705	112
603717	107
603959	111
603970	118
604195	155
604207	163
604416	165
604427	157
604632	180
604643	187
604832	248
604843	260
605023	337
605035	321
605217	264
605229	274
605438	205
605449	220
605663	162
605674	176
605894	126
605906	119
606118	89
606130	93
606340	101
606352	100
606545	112
606557	124
606755	53
606766	74
606987	130
606999	135
607216	146
607228	137
607439	122
607450	125
607648	159
607660	158
607852	111
607863	111
608049	84
608061	110
608241	133
608253	141
608433	203
608444	205
608617	432
608629	435
608810	410
608822	414
609025	377
609036	359
609254	305
609265	286
609495	235
609507	230
609735	183
609746	192
609966	129
609978	124
610181	163
610192	179
610383	152
610395	154
610599	124
610610	132
610813	115
610824	117
611027	111
611039	117
611247	122
611258	128
611471	111
611483	110
611697	115
611708	112
611915	140
611926	157
612119	150
612130	166
612333	144
612344	140
612556	162
612568	165
612779	165
612791	159
613011	151
613023	155
613255	148
613266	126
613495	150
613507	154
613714	172
613726	165
613950	151
613962	146
614193	162
614204	144
614432	136
614444	137
614654	154
614665	179
614855	184
614867	188
615058	180
615070	190
615282	181
615293	190
615517	181
615528	176
615743	181
615755	170
615958	71
615970	93
616166	191
616178	202
616362	188
616374	197
616570	176
616581	191
616793	174
616804	158
617032	154
617044	148
617273	136
617285	136
617491	148
617503	155
617698	169
617709	154
617900	239
617912	290
618095	278
618106	305
618279	241
618290	270
618456	243
618467	220
618630	159
618642	214
618802	203
618813	212
618974	232
618985	246
619140	232
619151	237
619305	219
619317	227
619472	220
619483	209
619640	194
619652	220
619812	184
619823	208
619990	183
620001	183
620183	159
620194	184
620385	180
620397	180
620592	170
620603	186
620796	159
620808	162
621002	163
621013	143
621207	150
621218	157
621412	126
621424	140
621621	137
621632	162
621822	170
621833	173
622032	188
622043	181
622249	162
622261	161
622454	132
622466	133
622659	118
622671	117
622852	136
622863	132
623038	130
623050	135
623251	154
623263	159
623467	159
623478	172
623694	161
623706	157
623929	124
623940	139
624149	139
624161	135
624388	130
624399	136
624614	122
624625	111
624843	110
624855	115
625056	144
625068	144
625258	162
625269	163
625472	146
625484	151
625692	146
625704	154
625908	163
625920	165
626111	159
626122	158
626319	130
626330	128
626515	155
626527	169
626706	52
626718	70
626888	140
626900	161
627080	133
627092	148
627277	146
627289	162
627465	166
627476	166
627655	173
627667	174
627868	143
627879	159
628082	124
628093	112
628309	124
628320	133
628525	148
628537	141
628739	151
628751	157
628971	170
628982	155
629195	146
629207	136
629424	117
629436	117
629638	165
629650	157
629838	179
629850	186
634005	129
634186	129
634530	140
634695	197
637431	356
637614	1992
637787	1867
637959	1668
638143	1424
638328	1388
653318	237
653514	225
671137	8160
671146	10915
674659	836
675122	-370
675134	-283
675292	-215
675460	-246
675471	-171
675661	-54
675672	-83
675898	-131
675910	-129
676140	-235
676152	-239
676377	-290
676388	-255
676642	-211
676654	-217
676891	-169
676902	-195
677132	-200
677143	-173
677359	-94
677371	-72
677563	-76
677575	-16
677754	-97
677766	-105
677935	-149
677947	4
678107	-42
678119	304
678274	-126
678286	-86
678443	42
678455	89
678626	95
678637	100
678832	48
678844	62
679072	55
679084	38
679322	12
679333	-16
679601	19
679612	4
679884	-51
679895	-31
680136	-32
680148	-24
680362	-17
680374	-68
680573	34
680584	38
680773	75
680784	78
680970	78
680982	56
681196	90
681208	394
681425	68
681437	79
681658	67
681670	57
681877	425
681889	418
682117	57
682128	75
682364	139
682375	100
682580	99
682592	86
682789	114
682800	93
683008	99
683020	112
683235	84
683247	86
683449	118
683461	132
683664	114
683676	106
683892	104
683904	99
684112	107
684123	110
684322	119
684334	112
684545	111
684556	121
684768	111
684780	96
684983	130
684995	128
685196	128
685208	136
685419	121
685431	128
685643	121
685655	140
685849	181
685860	166
686051	172
686062	188
686264	150
686276	150
686475	151
686487	152
686675	168
686687	195
686872	169
686884	179
687086	165
687097	157
687327	150
687338	165
687561	143
687573	135
687799	125
687811	118
688030	144
688042	133
688253	141
688264	129
688458	170
688470	158
688660	146
688671	154
688878	133
688890	139
689085	141
689096	157
689278	126
689290	133
689488	135
689500	115
689693	128
689705	143
689890	124
689902	152
690096	144
690108	143
690328	135
690340	136
690573	129
690584	117
690803	99
690815	101
691031	107
691042	97
691235	144
691247	143
691427	150
691438	141
691619	129
691631	139
691816	115
691828	137
692009	111
692020	136
692193	132
692204	126
692384	133
692395	126
692602	118
692613	108
692822	99
692834	103
693031	119
693042	112
693244	143
693255	125
693476	89
693487	103
693704	75
693716	89
693924	106
693935	101
694125	112
694137	139
694329	136
694340	136
694550	110
694561	111
694774	112
694785	93
694991	126
695002	130
695207	119
695218	106
695433	101
695445	115
695654	128
695666	135
695868	140
695879	148
696081	112
696092	129
696291	927
696303	897
696493	197
696505	168
696684	238
696696	270
696882	203
696893	184
697088	140
697100	151
697305	68
697316	70
697498	89
697510	90
697690	93
697701	106
697888	90
697900	95
698105	96
698117	101
698325	88
698336	75
698538	104
698550	100
698741	119
698753	112
698944	107
698956	115
699170	106
699181	117
699386	132
699398	136
699602	129
699614	132
699826	115
699838	110
700043	143
700055	140
700260	135
700272	136
700494	108
700506	100
700720	108
700732	121
700931	150
700942	148
701150	132
701162	135
701387	125
701398	137
701620	147
701632	137
701832	162
701843	158
702045	146
702057	157
702271	132
702283	122
702501	128
702513	125
702717	133
702729	144
702929	128
702941	132
703129	115
703141	130
703351	118
703363	115
703562	140
703574	139
703784	118
703795	124
704020	118
704032	114
704264	100
704275	106
704492	117
704504	103
704726	99
704737	95
704958	97
704970	108
705173	133
705184	148
705378	139
705389	139
705587	136
705599	128
705824	107
705836	103
706056	85
706068	79
706286	108
706298	100
706503	119
706514	122
706735	124
706747	121
706967	137
706979	135
707182	146
707194	151
707390	144
707402	147
707595	136
707607	122
707792	104
707804	108
707990	117
708002	147
708189	235
708367	187
708575	183
708586	184
708791	179
708802	181
708997	157
709009	166
709202	214
709214	210
709399	195
709410	197
709601	176
709613	174
709804	169
709816	172
710010	186
710022	174
710213	159
710225	151
710412	157
710424	161
710602	151
710613	144
710782	155
710793	155
710956	147
710968	159
711126	129
711138	148
711292	136
711304	161
711464	152
711476	155
711650	148
711662	147
711838	147
711849	152
712029	151
712041	177
712225	170
712236	179
712439	170
712450	152
712667	107
712679	108
712894	132
712905	112
713112	132
713123	137
713349	140
713361	139
713566	146
713578	159
713771	148
713783	152
713968	143
713980	137
714155	146
714167	158
714344	158
714355	154
714541	165
714553	146
714776	158
714787	158
715020	140
715032	114
715277	92
715288	107
715520	93
715532	100
715750	100
715762	93
715963	90
715975	92
716180	74
716191	96
716389	56
716400	81
716589	67
716601	85
716786	104
716798	107
716985	119
716996	168
717208	212
717220	243
717402	136
717414	118
717592	140
717603	146
717833	129
717844	111
718060	96
718072	100
718277	101
718289	114
718490	103
718502	95
718713	106
718724	90
718939	81
718950	96
719162	100
719173	95
719378	79
719390	89
719608	73
719620	64
719856	78
719867	74
720089	110
720101	111
720319	84
720330	96
720552	95
720563	90
720782	93
720793	111
721021	100
721033	81
721266	101
721277	106
721502	112
721514	119
721759	84
721771	79
722006	115
722017	93
722229	104
722241	112
722443	77
722455	93
722653	66
722665	71
722847	46
722859	66
723035	63
723047	70
723216	66
723228	90
723395	146
723406	275
723576	344
723728	199
723740	220
723894	214
723906	234
724059	225
724070	246
724232	216
724244	227
724424	191
724435	191
724648	168
724660	166
724874	157
724886	140
725108	139
725119	129
725343	129
725354	125
725575	130
725587	135
725800	128
725811	125
726020	108
726031	111
726231	99
726243	106
726439	90
726450	92
726635	101
726647	110
726823	129
726834	146
727005	163
727017	184
727194	129
727206	125
727392	99
727404	108
727601	133
727784	143
727795	150
727993	132
728005	143
728246	117
728258	117
728478	114
728490	88
728696	132
728708	141
728907	135
728919	130
729118	148
729129	137
729346	129
729358	135
729583	128
729595	128
729817	121
729829	110
730047	114
730059	129
730261	143
730439	165
730451	183
730624	151
730635	165
730823	161
730835	176
731044	169
731055	162
731260	150
731271	150
731483	146
731495	137
731718	148
731730	133
731956	128
731968	125
732176	157
732188	148
732397	155
732409	137
732630	135
732642	129
732846	139
732858	137
733054	137
733066	137
733268	110
733279	107
733479	118
733491	111
733683	144
733695	140
733887	135
733898	140
734118	95
734130	97
734352	99
734364	90
734574	118
734586	121
734793	108
734804	117
735014	99
735025	115
735227	151
735407	144
735419	151
735597	147
735609	147
735798	139
735810	136
736014	122
736026	135
736219	141
736231	146
736420	159
736431	148
736634	148
736645	152
736861	126
736873	129
737061	133
737073	146
737252	60
737264	130
737442	114
737601	88
737612	117
737779	128
737939	48
738084	42
738096	41
738239	243
738250	318
738391	369
738402	358
738540	367
738552	403
738689	329
738700	362
738836	416
738847	494
738981	369
738992	406
739125	337
739137	359
739270	327
739281	372
739413	300
739425	319
739560	292
739571	314
739718	301
739730	310
739880	283
739891	270
740046	259
740057	256
740207	252
740218	268
740364	232
740376	248
740532	224
740543	241
740711	206
740723	224
740910	195
740921	180
741114	184
741126	179
741304	140
741315	183
741484	143
741496	144
741654	183
741666	184
741817	79
741828	140
741974	114
741985	154
742125	57
742137	172
742277	152
742289	168
742427	85
742438	104
742585	95
742597	122
742801	73
742813	50
743033	74
743045	59
743263	77
743275	75
743487	106
743499	111
743733	101
743745	107
743995	82
744006	68
744243	77
744254	93
744485	55
744497	70
744699	68
744711	77
744900	99
744912	114
745088	148
745099	154
745267	176
745279	179
745444	176
745456	198
745637	206
745648	214
745847	191
745858	187
746060	155
746072	151
746275	133
746287	141
746482	124
746494	129
746689	188
746858	157
746870	166
747039	154
747050	135
747233	114
747245	133
747426	122
747438	125
747610	130
747622	118
747798	130
747810	125
747980	140
747991	137
748159	115
748170	124
748338	104
748350	124
748516	136
748528	154
748688	119
748700	132
748874	104
748886	96
749085	112
749096	104
749303	124
749315	111
749520	137
749531	122
749731	129
749743	144
749929	151
749941	132
750116	135
750128	130
750304	93
750315	108
750490	107
750501	162
750679	126
750843	136
750855	139
751021	151
751032	140
751236	126
751248	122
751440	157
751452	170
751638	137
751649	152
751839	161
751850	162
752073	180
752084	151
752279	154
752290	154
752478	143
752490	126
752664	158
752676	146
752842	147
752853	170
753019	108
753030	117
753193	130
753205	55
753359	97
753371	225
753522	124
753533	152
753679	106
753691	92
753833	64
753845	73
753983	71
753995	99
754133	111
754145	130
754287	143
754299	169
754465	158
754476	163
754683	152
754695	147
754918	124
754929	121
755166	106
755178	84
755387	163
755576	322
755751	942
755927	2281
756086	795
756098	843
756271	722
756449	613
756621	489
756801	417
756982	181
757157	79
757326	1479
757487	-6426
757646	-947
757802	-2962
757955	-917
758103	3097
758831	410
758974	173
759116	99
759256	238
759383	199
759395	180
759533	92
759669	90
759805	70
759940	-29
760074	75
760207	-42
760341	-105
760474	-67
760608	-12
760743	139
760880	241
761643	158
761811	179
761982	154
762156	195
762330	192
762515	157
762725	146
762948	110
763200	74
763425	50
763628	-63
763824	60
764019	90
773578	-1582
773587	-8724
773591	-25301
773595	-32768
773599	-32768
773678	-3499
773703	-10102
773716	-189
773720	-2635
773724	-4800
773728	-8325
773732	-14527
773737	1355
773741	-2281
773745	-6259
773749	-9865
773753	-13450
773757	-15211
773766	-4607
773770	-8301
773774	-10686
773778	-12023
773782	-13966
773791	-3783
773795	-7518
773799	-10939
773803	-14370
773812	-3955
773816	-5514
773824	-11465
773841	-5489
773845	-8624
773849	-11746
773866	-3389
773870	-6391
773874	-8896
810222	152
810234	140
810461	165
810473	179
810698	190
810919	177
810930	136
811151	100
811163	100
811385	146
811397	140
811599	181
811610	169
811827	139
811839	128
812050	101
812061	137
812273	154
812285	165
812502	166
812514	158
812761	125
812772	110
813027	139
813038	114
813273	154
813285	152
813522	96
813534	97
813761	151
813773	146
813989	154
814000	161
814208	155
814220	180
814449	144
814460	122
814701	136
814713	141
814949	166
814961	166
815201	122
815213	121
815451	129
815462	141
815673	170
815685	163
815883	137
815894	147
816087	108
816098	107
816299	152
816310	139
816524	174
816536	174
816787	141
816798	114
817062	128
817073	111
817318	130
817329	155
817578	125
817590	108
817834	114
817846	132
818088	152
818100	173
818333	154
818345	146
818577	119
818588	107
818830	121
818842	121
819075	78
819086	125
819280	63
819291	107
819466	111
819478	133
819647	117
819659	110
819822	118
819834	148
819999	187
820011	191
820199	208
820395	234
820614	140
820849	140
821078	92
821557	67
821794	78
822039	62
822276	64
822718	85
823162	115
823373	67
823568	106
823754	174
823944	130
824164	114
824176	119
824416	143
824428	128
824671	184
824683	159
824950	122
824962	119
825203	115
825214	95
825447	147
825459	155
825694	95
825706	101
825951	96
825962	110
826197	121
826209	143
826437	133
826658	92
826669	59
826889	75
826900	82
827112	106
827123	111
827340	90
827351	121
827599	62
827611	42
827854	114
827866	104
828090	74
828102	75
828338	68
828349	44
828572	88
828584	114
828806	114
828818	132
829036	92
829048	103
829272	107
829283	86
829502	126
829513	147
829727	150
829739	154
829956	108
829967	117
830189	92
830200	115
830410	133
830422	161
830637	147
830860	115
831103	84
831115	81
831362	92
831374	89
831596	151
831608	146
831829	121
831841	107
832081	92
832092	100
832318	140
832330	146
832546	141
832558	132
832786	99
832798	93
833027	95
833039	124
833255	179
833267	192
833478	143
833489	161
833704	143
833716	140
833907	96
833918	112
834097	148
834108	157
834303	177
834495	177
834725	166
834958	128
835191	126
835431	96
835675	112
835892	111
836089	49
836100	88
836302	95
836314	96
836519	124
836730	108
836958	133
837203	115
837454	137
837696	115
837925	92
837937	114
838154	147
838165	137
838374	180
838581	184
838795	179
839020	176
839255	117
839471	81
839483	104
839710	126
839916	188
840107	179
840119	166
840306	112
840317	136
840520	157
840532	144
840745	190
840948	155
840960	133
841196	157
841441	151
841668	110
841895	137
842125	75
842137	103
842372	93
842384	90
842615	173
842827	141
842839	128
843060	111
843072	110
843291	159
843303	177
843518	135
843530	132
843755	85
843767	104
844002	143
844223	117
844235	108
844460	114
844472	104
844715	166
844727	151
844963	92
844974	124
845226	73
845238	75
845467	135
845479	155
845698	137
845710	122
845946	82
845958	110
846190	155
846202	148
846428	155
846440	148
846669	111
846681	104
846898	172
846910	161
847124	172
847136	163
847363	115
847374	130
847598	181
847609	150
847827	188
847838	155
848074	144
848086	148
848327	150
848339	150
848565	198
848577	191
848803	152
848814	139
849036	166
849048	165
849260	174
849272	180
849484	139
849495	176
849741	133
849753	141
849977	173
849989	157
850217	133
850229	121
850463	99
850475	99
850689	161
850700	147
850916	161
850927	179
851178	183
851434	150
851680	129
851692	124
851938	126
851950	141
852169	181
852181	169
852396	146
852408	158
852631	136
852643	126
852862	190
852874	195
853099	139
853111	155
853347	112
853358	114
853585	161
853596	150
853822	101
853834	95
854049	118
854061	121
854246	93
854258	110
854427	139
854439	162
854604	184
854615	216
854792	221
855222	155
855484	129
855728	146
855974	184
856215	154
856449	140
856665	195
856884	137
857088	148
857284	148
857493	143
857713	124
857938	129
858194	133
858416	139
858634	144
858858	151
859096	119
859351	124
859583	115
859803	177
860023	181
860254	117
860489	112
860501	106
860735	173
860959	152
861190	166
861421	122
861641	166
861860	157
862066	119
862078	141
862298	161
862525	155
862749	111
862986	118
863216	143
863433	110
863653	108
863864	140
864082	180
864316	151
864549	151
864755	151
864766	147
864968	467
864979	443
865189	263
865200	250
865407	174
865418	205
865629	238
865822	217
866007	325
866775	90
866948	-137
866960	-178
867122	-203
867133	-213
867290	-333
867301	-293
867453	-231
867464	-232
867612	-105
867623	-90
867769	1114
867780	1227
867922	294
867934	308
868075	62
868086	39
868237	-1030
868385	174
868537	303
868699	250
872857	-9
873088	-53
873301	4
873505	13
873715	48
873947	27
874206	23
874447	45
874727	24
874962	100
875177	104
875406	74
875649	49
875905	59
876140	100
876388	56
876640	90
876865	101
877088	78
877100	93
877337	97
877565	101
877789	49
877801	42
878037	97
878267	82
878503	84
878735	103
878974	92
878986	89
879247	121
879486	140
879737	133
879749	130
880007	168
880237	159
880249	150
880483	166
880494	157
880737	209
880960	139
880972	146
881207	162
881437	187
881674	133
881906	114
881918	132
882155	176
882383	126
882395	114
882651	136
882890	141
883119	125
883369	115
883606	132
883841	101
883852	93
884112	140
884361	133
884608	143
884620	137
884877	173
885129	147
885140	157
885402	180
885631	150
885643	170
885888	159
885900	159
886124	141
886136	151
886357	148
886368	176
886610	132
886622	147
886864	163
887094	117
887105	129
887334	130
887346	122
887583	132
887814	122
887826	112
888069	130
888306	147
888559	119
888570	89
888815	136
889042	110
889054	100
889259	103
889271	106
889461	119
889473	136
889652	158
889663	162
889847	241
890035	252
890238	223
890530	165
890805	132
890817	119
891078	161
891305	124
891316	101
891551	141
891777	181
892002	137
892242	121
892465	173
892682	155
892883	152
893089	148
893316	122
893328	141
893548	177
893770	159
893999	118
894010	137
894256	180
894496	133
894731	163
894742	139
894981	198
895203	179
895215	183
895445	161
895457	168
895686	213
895904	199
896118	141
896129	159
896351	128
896363	137
896596	152
896840	148
897086	132
897098	129
897358	150
897622	108
897869	107
897881	97
898136	130
898374	157
898614	115
898626	121
898881	130
898892	154
899147	150
899385	115
899397	111
899655	104
899666	130
899927	176
900172	183
900428	147
900679	163
900924	139
901174	93
901430	118
901673	115
901929	103
902186	103
902430	143
902687	106
902948	89
903197	126
903469	77
903707	99
903719	128
903926	307
903937	305
904129	209
904140	170
904324	281
904488	773
904500	788
904670	676
904837	318
905001	230
905171	154
905354	125
906919	35
907114	11
907299	52
907479	77
907663	68
907870	104
908118	96
908358	66
908590	177
908822	143
909092	183
909332	183
909579	169
909818	208
910050	161
910285	143
910531	158
910767	151
911016	137
911267	136
911518	133
911779	106
912027	106
912256	151
912480	107
912701	81
912925	155
913152	124
913399	93
913656	50
913905	135
914139	111
914385	96
914625	159
914845	192
915072	146
915314	124
915549	157
915777	133
916017	130
916260	125
916491	166
916718	152
916960	97
917210	122
917453	159
917689	125
917934	119
918158	140
918369	159
918575	140
918762	97
918773	129
918948	177
918960	85
919123	46
919134	85
919303	56
919475	97
919648	96
919861	114
920094	136
920333	136
920565	224
920804	194
921039	217
921267	217
921489	208
921712	136
921924	169
922136	201
922345	136
922531	129
922543	130
922726	114
922906	133
923094	221
923281	214
923489	202
923690	239
923886	650
924069	512
924457	-10
925616	191
925774	237
925919	197
925930	235
926072	212
926083	228
926223	-68
926235	-85
926383	-1556
926532	-2236
926669	-2685
926681	-2714
926817	-1511
926828	-1110
926965	-1038
926976	-1085
927120	-691
927132	-535
927280	-382
927292	-381
927434	-215
927446	-203
927585	195
927596	231
927733	294
927745	180
927880	337
927892	359
928027	358
928038	392
928172	428
928184	461
928317	405
928329	454
928462	429
928474	472
928609	472
928621	501
928770	518
928909	513
928921	529
929066	442
929077	493
929228	442
929239	447
929399	418
929410	420
929582	361
929593	365
929766	319
929777	341
929960	301
929972	307
930157	242
930168	230
930340	212
930352	212
930528	162
930539	170
930715	128
930726	151
930924	141
930936	144
931145	114
931157	117
931378	106
931390	99
931634	104
931646	112
931886	103
931898	101
932111	128
932123	143
932311	154
932323	148
932496	453
932507	706
932679	421
932832	443
932844	464
932995	381
933007	394
933156	318
933167	341
933324	285
933336	297
933557	212
933569	221
933783	151
933794	147
934022	81
934034	77
934277	53
934289	46
934538	22
934549	31
934797	26
934809	28
935035	37
935047	35
935257	39
935268	48
935475	0
935486	2
935682	42
935694	56
935893	59
935905	59
936105	15
936117	16
936317	79
936496	143
936508	139
936681	165
936692	161
936861	-264
936873	38
937040	-91
937052	126
937234	-90
937245	-69
937413	-98
937425	-75
937590	-162
937601	-136
937785	-115
937796	-116
938003	-80
938015	-76
938231	-32
938242	-28
938451	30
938463	33
938690	101
938702	89
938918	166
938930	154
939140	180
939151	177
939369	216
939381	231
939601	248
939613	261
939815	278
939827	279
940030	250
940042	253
940252	199
940263	205
940469	221
940481	235
940683	246
940695	257
940899	203
940911	195
941127	181
941139	177
941365	220
941376	221
941580	232
941592	232
941806	203
941818	199
942049	184
942061	187
942301	166
942312	176
942529	150
942541	147
942758	115
942770	129
942966	186
942978	186
943170	190
943181	195
943383	151
943394	155
943595	198
943607	208
943803	206
943814	208
944024	140
944036	137
944258	162
944269	168
944474	157
944485	169
944687	137
944699	144
944895	137
944907	148
945083	191
945095	199
945274	157
945285	161
945462	112
945473	119
945643	110
945655	130
945816	143
945827	173
945990	212
946001	227
946163	223
946175	239
946355	232
946366	224
946585	202
946596	201
946822	188
946833	176
947055	183
947066	165
947294	162
947306	161
947539	155
947550	147
947759	195
947771	190
947964	148
947976	148
948159	122
948171	139
948355	197
948367	197
948554	192
948565	195
948768	161
948780	168
948997	152
949008	150
949236	192
949248	191
949459	163
949471	154
949703	155
949714	166
949923	172
949935	174
950131	163
950143	174
950344	170
950356	172
950580	157
950592	155
950817	154
950829	146
951053	139
951064	152
951282	137
951293	125
951492	181
951504	187
951690	179
951702	199
951890	166
951901	172
952103	162
952114	162
952331	168
952343	158
952574	162
952586	158
952808	159
952820	180
953031	165
953043	166
953260	159
953271	168
953478	144
953489	158
953687	161
953698	180
953877	225
953889	231
954060	224
954071	227
954235	228
954247	242
954407	214
954418	221
954635	152
954646	146
954869	133
954880	122
955087	181
955099	183
955295	186
955307	187
955522	165
955534	165
955785	119
955797	117
956000	231
956012	254
956199	316
956210	325
956386	352
956398	356
956564	314
956576	319
956742	228
956753	257
956925	199
956937	203
957121	140
957133	154
957303	141
957315	147
957486	228
957498	238
957683	307
957695	327
957881	322
957893	319
958089	296
958101	286
958318	230
958330	242
958575	202
958586	194
958814	165
958826	166
959047	166
959058	165
959262	119
959274	125
959473	95
959484	110
959678	150
959690	157
959873	183
959885	198
960065	174
960076	186
960274	146
960286	143
960491	133
960503	136
960700	170
960712	172
960904	216
960915	208
961114	199
961125	192
961324	157
961335	166
961547	165
961559	165
961770	166
961781	177
962002	157
962014	152
962249	162
962261	154
962495	129
962506	133
962739	103
962750	118
962960	150
962972	162
963182	152
963194	148
963414	140
963425	130
963661	110
963672	106
963908	85
963919	90
964141	143
964153	139
964360	137
964372	141
964592	121
964603	133
964809	106
964821	118
965012	111
965023	125
965207	124
965218	129
965392	217
965403	238
965566	194
965577	208
965741	239
965752	237
965910	281
965922	285
966081	243
966093	253
966278	238
966290	239
966553	217
966564	205
966815	148
966827	147
967097	161
967108	147
967377	141
967388	143
967644	107
967655	124
967881	114
967893	125
968094	143
968106	154
968305	133
968317	132
968532	112
968544	121
968783	119
968795	111
969038	115
969050	117
969290	96
969302	90
969533	124
969544	125
969760	163
969772	169
969988	139
970000	146
970229	126
970240	124
970460	96
970471	85
970683	135
970695	147
970887	141
970899	154
971098	125
971110	132
971332	125
971344	121
971578	114
971590	111
971816	117
971827	117
972033	158
972044	170
972246	159
972258	170
972461	177
972472	176
972683	170
972695	169
972915	129
972927	125
973129	163
973141	154
973331	168
973342	155
973542	158
973554	166
973772	137
973784	147
974051	132
974063	126
974331	104
974343	107
974597	100
974609	104
974822	154
974834	159
975038	150
975050	157
975265	143
975277	148
975508	137
975520	132
975744	118
975755	115
975958	157
975970	168
976169	146
976181	136
976388	114
976400	115
976604	165
976616	172
976808	174
976820	177
977023	180
977035	191
977259	143
977271	140
977524	129
977536	133
977769	155
977781	151
978012	129
978024	129
978274	126
978285	130
978527	129
978539	133
978763	168
978775	169
978987	124
978998	126
979194	78
979206	110
979387	140
979399	150
979586	191
979597	202
979777	176
979788	188
980001	168
980013	166
980242	150
980254	144
980501	147
980512	139
980771	159
980783	151
981020	139
981031	139
981267	133
981278	132
981502	154
981514	161
981720	157
981731	165
981941	143
981953	136
982165	151
982177	148
982385	132
982396	135
982590	166
982601	169
982786	183
982798	186
982985	150
982996	165
983235	125
983246	118
983494	106
983505	100
983740	146
983751	152
983972	114
983983	117
984191	75
984203	97
984393	101
984405	108
984596	157
984607	166
984798	184
984810	195
985007	174
985018	176
985222	180
985233	183
985449	161
985461	157
985681	168
985692	173
985930	162
985942	150
986166	152
986178	154
986408	168
986419	173
986630	190
986641	186
986857	166
986869	170
987088	136
987099	148
987308	137
987320	146
987520	118
987531	140
987711	128
987723	135
987892	130
987904	129
988066	143
988077	152
988257	188
988269	194
988445	190
988457	188
988804	119
988815	133
989135	104
989147	101
989430	104
989442	101
989700	107
989712	107
989936	130
989948	148
990146	163
990158	161
990349	154
990361	161
990570	152
990582	157
990815	132
990826	132
991066	133
991078	141
991315	132
991327	125
991549	106
991561	93
991757	89
991769	100
991947	85
991959	125
992125	166
992137	174
992307	198
992319	203
992485	183
992497	190
992693	188
992705	190
992953	173
992965	163
993210	173
993222	163
993486	155
993497	140
993747	106
993759	107
993989	97
994001	103
994204	146
994215	157
994408	154
994420	154
994618	122
994629	118
994846	124
994857	112
995075	129
995087	130
995291	165
995303	174
995509	143
995521	147
995740	121
995751	132
995979	112
995991	108
996222	130
996233	130
996433	86
996445	115
996632	84
996643	95
996835	163
996847	163
997026	183
997037	186
997219	159
997231	170
997448	155
997460	140
997688	132
997700	126
997933	133
997945	126
998194	122
998206	129
998453	135
998464	141
998695	135
998707	146
998930	117
998941	122
999145	165
999156	184
999346	187
999358	187
999551	176
999562	192
999768	179
999780	184
999997	172
1000008	183
1000247	125
1000259	135
1000498	170
1000510	172
1000714	198
1000726	192
1000931	126
1000943	128
1001151	104
1001163	112
1001364	100
1001376	125
1001554	100
1001565	125
1001729	177
1001741	187
1001905	237
1001916	245
1002080	225
1002092	246
1002267	133
1002279	139
1002454	100
1002466	100
1002650	71
1002662	89
1002882	140
1002893	151
1003091	188
1003102	198
1003299	279
1003310	279
1003492	243
1003504	256
1003700	216
1003712	225
1003915	205
1003926	214
1004137	187
1004149	192
1004360	186
1004371	180
1004576	209
1004588	194
1004802	210
1004813	194
1005028	179
1005039	176
1005255	169
1005267	169
1005478	140
1005489	133
1005696	198
1005707	202
1005897	186
1005909	194
1006109	174
1006121	181
1006339	166
1006350	161
1006580	147
1006591	154
1006810	133
1006822	126
1007043	96
1007055	85
1007261	148
1007273	148
1007461	157
1007473	152
1007663	114
1007674	114
1007871	147
1007883	143
1008073	198
1008084	195
1008277	179
1008288	172
1008523	144
1008535	139
1008780	96
1008792	95
1009001	55
1009013	64
1009212	64
1009223	66
1009411	67
1009422	70
1009596	88
1009608	107
1009777	202
1009788	227
1009953	287
1009965	297
1010126	238
1010138	242
1010305	213
1010317	216
1010508	239
1010519	254
1010710	249
1010722	243
1010927	216
1010939	202
1011170	197
1011181	184
1011416	174
1011428	166
1011666	181
1011678	174
1011919	165
1011931	161
1012160	114
1012171	112
1012376	70
1012388	84
1012571	4
1012583	23
1012752	147
1012764	212
1012925	184
1012936	173
1013089	209
1013101	249
1013251	303
1013263	330
1013417	301
1013428	311
1013605	283
1013616	272
1013867	230
1013879	224
1014120	206
1014132	201
1014384	177
1014396	166
1014660	143
1014672	129
1014936	155
1014948	162
1015170	163
1015181	163
1015395	143
1015406	137
1015623	132
1015635	140
1015854	122
1015865	130
1016083	121
1016095	125
1016315	122
1016327	122
1016542	68
1016554	70
1016740	-12
1016751	26
1016924	20
1016936	57
1017099	174
1017111	191
1017270	264
1017281	281
1017440	274
1017451	301
1017611	276
1017623	292
1017793	235
1017805	228
1017997	270
1018008	270
1018237	201
1018248	195
1018464	243
1018476	241
1018680	238
1018691	228
1018916	208
1018928	201
1019149	197
1019161	199
1019376	177
1019388	173
1019597	147
1019609	155
1019799	95
1019811	107
1019989	55
1020001	85
1020167	162
1020179	190
1020339	243
1020351	263
1020508	259
1020520	271
1020677	235
1020689	245
1020851	208
1020863	223
1021059	221
1021070	210
1021299	202
1021311	190
1021540	176
1021551	158
1021768	146
1021780	137
1021976	124
1021987	132
1022168	181
1022180	195
1022359	245
1022370	253
1022544	228
1022556	231
1022740	190
1022752	195
1022931	223
1022942	237
1023125	238
1023136	237
1023339	234
1023351	224
1023585	212
1023597	217
1023833	209
1023845	205
1024076	194
1024087	194
1024303	170
1024314	180
1024519	198
1024531	210
1024713	235
1024725	237
1024897	223
1024909	234
1025082	161
1025093	173
1025274	159
1025286	162
1025465	199
1025476	221
1025645	241
1025656	250
1025839	202
1025851	210
1026087	143
1026099	135
1026331	150
1026342	140
1026560	154
1026571	151
1026789	137
1026800	126
1027025	119
1027037	129
1027247	163
1027258	166
1027461	139
1027472	128
1027674	139
1027685	146
1027884	168
1027896	159
1028090	184
1028101	170
1028300	159
1028312	157
1028508	192
1028519	192
1028715	206
1028727	203
1028929	158
1028940	168
1029147	169
1029158	168
1029357	179
1029368	187
1029562	192
1029574	192
1029772	159
1029783	170
1029977	174
1029988	166
1030166	146
1030178	166
1030349	173
1030361	187
1030527	155
1030538	150
1030717	140
1030728	158
1030936	158
1030948	148
1031141	148
1031152	144
1031344	159
1031355	162
1031536	176
1031547	187
1031720	159
1031732	176
1031901	169
1031913	183
1032085	172
1032097	168
1032270	159
1032282	170
1032448	128
1032460	144
1032626	151
1032637	169
1032796	170
1032808	184
1032968	168
1032979	177
1033152	168
1033163	172
1033366	159
1033377	168
1033581	150
1033592	163
1033798	168
1033810	155
1034008	165
1034020	169
1034213	128
1034224	140
1034404	141
1034415	157
1034582	159
1034594	169
1034761	147
1034773	163
1034949	140
1035147	135
1035159	143
1035345	147
1035356	148
1035548	139
1035560	152
1035749	181
1035761	177
1035941	206
1035953	199
1036140	214
1036152	221
1036351	212
1036362	212
1036570	202
1036582	205
1036780	176
1036791	181
1036980	219
1036992	242
1037170	176
1037181	190
1037353	169
1037364	181
1037534	186
1037545	186
1037717	172
1037728	159
1037898	128
1037910	135
1038082	146
1038094	161
1038257	194
1038269	179
1038430	183
1038442	181
1038607	112
1038619	128
1038791	161
1038802	183
1038975	216
1038986	214
1039160	150
1039171	154
1039367	147
1039378	144
1039595	154
1039607	150
1039820	157
1039831	161
1040059	144
1040070	140
1040270	132
1040281	129
1040480	115
1040492	122
1040691	155
1040702	161
1040890	159
1040902	172
1041101	165
1041112	165
1041326	174
1041338	169
1041561	173
1041572	172
1041783	144
1041794	147
1042004	154
1042016	159
1042209	154
1042221	146
1042411	140
1042422	147
1042623	136
1042635	137
1042837	154
1042849	148
1043053	144
1043064	143
1043279	122
1043290	135
1043516	129
1043528	132
1043737	152
1043748	151
1043966	141
1043978	139
1044207	144
1044219	146
1044427	129
1044439	132
1044641	139
1044653	137
1044861	136
1044873	146
1045077	146
1045089	137
1045280	165
1045291	173
1045493	158
1045505	152
1045708	148
1045719	158
1045910	133
1045922	136
1046122	148
1046133	147
1046349	141
1046361	136
1046567	139
1046579	140
1046777	140
1046789	143
1046991	129
1047003	135
1047206	129
1047218	129
1047404	121
1047415	126
1047604	126
1047615	125
1047823	103
1047835	108
1048044	101
1048056	107
1048262	121
1048273	114
1048470	136
1048482	132
1048693	140
1048704	143
1048915	140
1048927	141
1049122	135
1049133	143
1049317	130
1049329	130
1049509	124
1049521	135
1049693	135
1049705	140
1049866	125
1049878	144
1050035	125
1050046	139
1050202	157
1050213	169
1050377	158
1050389	177
1050581	187
1050593	209
1050823	143
1050834	135
1051044	122
1051055	118
1051274	121
1051286	126
1051490	135
1051502	135
1051721	122
1051733	126
1051961	106
1051972	130
1052198	125
1052210	133
1052425	117
1052436	124
1052647	93
1052659	101
1052857	95
1052869	111
1053053	124
1053065	130
1053242	128
1053253	146
1053446	136
1053458	147
1053697	122
1053709	119
1053940	104
1053952	101
1054194	97
1054206	103
1054421	112
1054432	118
1054645	128
1054657	139
1054877	129
1054889	132
1055092	139
1055104	155
1055305	144
1055316	147
1055527	128
1055538	129
1055747	140
1055759	146
1055952	143
1055963	150
1056162	139
1056173	136
1056394	128
1056406	124
1056638	119
1056649	129
1056889	119
1056901	119
1057126	112
1057137	117
1057354	107
1057366	108
1057568	88
1057579	106
1057764	121
1057776	129
1057951	136
1057963	148
1058139	119
1058150	137
1058335	115
1058347	129
1058543	159
1058555	162
1058742	126
1058753	128
1058942	100
1058954	106
1059131	124
1059143	143
1059333	124
1059345	124
1059553	111
1059564	117
1059782	103
1059794	106
1060011	122
1060023	129
1060227	104
1060239	112
1060435	147
1060447	157
1060628	157
1060640	158
1060819	137
1060831	147
1061012	119
1061023	130
1061201	141
1061213	158
1061390	155
1061401	168
1061584	148
1061596	148
1061802	158
1061814	159
1062005	144
1062016	147
1062210	129
1062222	137
1062402	151
1062414	152
1062593	124
1062605	126
1062776	96
1062787	139
1062946	103
1062958	114
1063111	155
1063123	162
1063278	172
1063289	191
1063451	172
1063463	183
1063655	163
1063667	168
1063883	170
1063894	168
1064121	181
1064132	177
1064375	176
1064386	176
1064604	166
1064616	166
1064827	151
1064839	152
1065032	176
1065044	183
1065222	174
1065233	187
1065408	148
1065419	159
1065610	151
1065622	152
1065803	173
1065815	180
1066001	183
1066012	188
1066217	146
1066229	141
1066433	141
1066445	139
1066642	143
1066654	139
1066859	146
1066871	135
1067102	140
1067113	135
1067361	129
1067373	125
1067602	121
1067614	129
1067826	97
1067837	95
1068044	119
1068055	124
1068238	155
1068250	157
1068424	132
1068435	135
1068629	106
1068641	115
1068843	136
1068854	151
1069048	157
1069059	155
1069272	122
1069284	124
1069517	132
1069528	132
1069737	169
1069748	169
1069957	150
1069969	147
1070191	132
1070203	124
1070420	155
1070431	143
1070644	155
1070656	147
1070874	119
1070885	118
1071093	130
1071104	141
1071304	146
1071316	141
1071520	112
1071531	111
1071748	119
1071760	115
1071962	135
1071974	140
1072180	132
1072191	124
1072415	96
1072427	99
1072646	122
1072658	132
1072860	141
1072871	139
1073077	111
1073089	104
1073306	96
1073318	100
1073518	158
1073530	158
1073725	146
1073737	151
1073946	103
1073957	106
1074155	158
1074166	169
1074358	166
1074370	168
1074577	147
1074588	146
1074802	147
1074813	148
1075021	148
1075032	146
1075236	115
1075248	121
1075443	112
1075455	125
1075641	125
1075653	126
1075834	108
1075846	118
1076043	100
1076055	97
1076261	108
1076273	111
1076474	150
1076485	141
1076695	129
1076707	143
1076923	117
1076935	117
1077143	137
1077155	151
1077359	129
1077371	125
1077591	110
1077603	106
1077815	132
1077827	137
1078026	169
1078037	176
1078229	157
1078240	157
1078445	129
1078457	130
1078670	148
1078681	157
1078888	168
1078899	165
1079106	162
1079117	163
1079347	154
1079359	163
1079574	183
1079585	190
1079807	161
1079819	162
1080056	168
1080067	162
1080289	166
1080301	158
1080509	148
1080521	143
1080729	117
1080740	121
1080949	114
1080961	129
1081155	136
1081166	143
1081350	95
1081362	114
1081554	111
1081566	111
1081782	107
1081793	106
1081992	151
1082004	150
1082197	152
1082208	154
1082424	152
1082436	151
1082679	152
1082691	154
1082916	114
1082927	107
1083140	144
1083151	146
1083349	158
1083360	161
1083551	143
1083563	147
1083761	130
1083773	128
1083961	163
1083973	162
1084162	166
1084173	168
1084373	136
1084384	144
1084591	139
1084603	140
1084808	162
1084820	162
1085016	181
1085028	172
1085239	132
1085251	130
1085465	124
1085477	125
1085679	158
1085691	163
1085885	170
1085897	174
1086099	141
1086111	140
1086316	130
1086327	126
1086532	147
1086544	146
1086743	148
1086755	143
1086955	101
1086967	103
1087171	106
1087183	101
1087384	143
1087395	144
1087591	141
1087602	147
1087796	121
1087807	128
1088009	112
1088020	117
1088218	158
1088230	151
1088429	148
1088441	144
1088651	135
1088662	124
1088886	157
1088898	163
1089114	172
1089126	172
1089352	135
1089364	129
1089600	93
1089612	92
1089828	124
1089840	121
1090037	117
1090049	119
1090262	97
1090273	88
1090508	90
1090520	88
1090738	115
1090749	114
1090954	103
1090965	103
1091197	66
1091209	71
1091427	104
1091439	110
1091642	122
1091654	125
1091871	95
1091882	92
1092099	88
1092110	85
1092322	147
1092333	158
1092535	161
1092547	166
1092756	143
1092767	143
1092983	170
1092995	169
1093203	174
1093214	174
1093420	148
1093432	150
1093655	128
1093666	121
1093890	161
1093901	169
1094110	148
1094122	141
1094341	115
1094353	114
1094562	115
1094573	121
1094773	168
1094784	168
1094981	143
1094992	144
1095205	104
1095217	108
1095435	95
1095446	104
1095657	155
1095668	157
1095869	146
1095881	146
1096104	117
1096116	114
1096337	130
1096348	135
1096563	166
1096575	168
1096780	137
1096792	135
1097006	115
1097018	114
1097223	110
1097235	111
1097431	148
1097443	163
1097630	163
1097641	173
1097844	166
1097855	173
1098079	159
1098090	150
1098318	137
1098330	133
1098570	152
1098582	152
1098787	159
1098798	165
1099003	140
1099014	147
1099239	150
1099250	141
1099467	151
1099479	161
1099688	172
1099699	172
1099898	140
1099910	146
1100119	122
1100131	126
1100347	140
1100359	146
1100568	162
1100580	155
1100796	128
1100808	125
1101028	112
1101039	118
1101257	140
1101269	144
1101473	150
1101485	157
1101698	128
1101709	128
1101932	104
1101944	107
1102161	152
1102172	148
1102380	157
1102391	163
1102605	126
1102616	135
1102830	136
1102842	150
1103038	188
1103050	188
1103240	174
1103251	187
1103452	169
1103463	176
1103668	147
1103680	140
1103895	130
1103907	124
1104114	163
1104126	165
1104323	173
1104335	174
1104538	152
1104549	155
1104764	117
1104775	124
1104979	150
1104991	155
1105185	161
1105197	166
1105383	140
1105395	141
1105588	112
1105600	117
1105812	126
1105824	139
1106024	161
1106036	157
1106239	168
1106251	169
1106475	165
1106487	161
1106710	143
1106722	147
1106948	183
1106960	187
1107166	184
1107178	188
1107372	147
1107383	146
1107569	133
1107580	147
1107759	170
1107770	179
1107940	161
1107952	172
1108125	161
1108137	172
1108331	173
1108343	174
1108553	186
1108564	186
1108771	159
1108782	159
1108986	126
1108997	133
1109188	154
1109200	151
1109386	159
1109397	157
1109598	150
1109610	155
1109807	147
1109819	155
1110021	101
1110032	108
1110226	126
1110237	124
1110421	137
1110433	150
1110612	124
1110624	133
1110809	125
1110820	132
1111010	129
1111021	132
1111208	132
1111220	135
1111410	103
1111422	112
1111605	159
1111617	162
1111796	155
1111808	170
1111997	133
1112008	143
1112214	140
1112226	147
1112420	165
1112432	172
1112618	177
1112629	174
1112825	144
1112836	148
1113033	140
1113044	154
1113236	157
1113247	163
1113430	148
1113442	143
1113632	101
1113643	96
1113835	117
1113847	125
1114025	161
1114037	158
1114214	166
1114226	170
1114409	140
1114421	158
1114597	186
1114608	194
1114782	186
1114794	195
1114984	181
1114995	188
1115206	173
1115218	169
1115436	165
1115447	155
1115660	165
1115672	163
1115876	128
1115887	133
1116088	139
1116100	148
1116289	165
1116301	172
1116484	162
1116495	168
1116683	150
1116695	151
1116886	155
1116897	168
1117078	177
1117090	179
1117270	161
1117281	159
1117465	128
1117477	137
1117664	136
1117676	152
1117863	176
1117874	184
1118071	163
1118083	162
1118309	136
1118321	136
1118530	166
1118542	169
1118735	172
1118746	170
1118943	135
1118954	137
1119159	118
1119170	111
1119361	148
1119373	159
1119549	107
1119561	115
1119732	93
1119744	96
1119927	104
1119939	115
1120115	146
1120126	155
1120305	135
1120317	136
1120514	139
1120525	133
1120735	144
1120746	141
1120942	111
1120953	121
1121152	119
1121163	122
1121347	159
1121359	163
1121539	141
1121550	147
1121740	125
1121751	124
1121942	162
1121954	177
1122138	197
1122149	199
1122337	166
1122348	162
1122556	118
1122568	112
1122770	130
1122782	132
1122976	125
1122987	137
1123179	101
1123191	108
1123378	84
1123389	88
1123575	144
1123587	150
1123758	170
1123769	180
1123936	114
1123948	126
1124126	52
1124138	79
1124312	85
1124324	92
1124493	637
1124504	742
1124688	4836
1124882	5234
1125082	5430
1125264	-822
1125276	-735
1125316	-1542
1125335	-2707
1125447	-6821
1125459	-6305
1125685	-3655
1125696	-3673
1125804	-3567
1125969	-2687
1126134	-2091
1126285	-1609
1126296	-1569
1126446	-1217
1126457	-1186
1126607	-904
1126618	-877
1126765	-666
1126777	-632
1126922	-510
1126933	-477
1127079	-378
1127091	-346
1127245	-246
1127256	-231
1127413	-148
1127425	-120
1127585	-57
1127597	-35
1127763	34
1127775	49
1127940	115
1127952	133
1128112	230
1128123	246
1128283	276
1128295	293
1128459	301
1128471	318
1128652	319
1128664	330
1128875	327
1128887	332
1129117	307
1129129	318
1129357	282
1129368	286
1129600	257
1129612	261
1129834	228
1129845	231
1130058	209
1130069	206
1130278	191
1130290	194
1130500	181
1130512	176
1130722	203
1130915	165
1130926	176
1131119	174
1131131	180
1131324	239
1131501	239
1131513	248
1131703	223
1131714	239
1131945	231
1131956	235
1132187	203
1132199	197
1132453	146
1132464	147
1132684	208
1132696	217
1132901	213
1132913	212
1133125	205
1133137	201
1133371	194
1133382	191
1133615	177
1133627	190
1133830	148
1133841	148
1134042	115
1134053	136
1134233	276
1134245	285
1134416	243
1134428	223
1134603	173
1134614	186
1134798	166
1134810	170
1134991	223
1135003	237
1135176	243
1135188	245
1135374	212
1135385	209
1135591	169
1135602	176
1135802	188
1135814	191
1136027	133
1136039	132
1136243	137
1136255	148
1136448	170
1136460	170
1136653	158
1136664	152
1136860	112
1136872	132
1137063	55
1137075	23
1137271	104
1137282	115
1137472	198
1137484	203
1137671	151
1137682	170
1137881	158
1137893	157
1138114	146
1138125	150
1138357	159
1138369	155
1138583	133
1138594	146
1138801	158
1138812	173
1139007	203
1139018	198
1139205	106
1139217	130
1139421	181
1139432	187
1139648	184
1139660	180
1139888	174
1139899	177
1140104	140
1140116	150
1140321	147
1140332	148
1140533	201
1140544	191
1140733	192
1140745	195
1140945	137
1140956	141
1141174	132
1141378	195
1141389	195
1141591	187
1141603	184
1141815	154
1141827	151
1142048	148
1142060	163
1142269	169
1142281	165
1142499	129
1142511	133
1142725	152
1142737	154
1142942	173
1142954	173
1143164	132
1143175	128
1143380	124
1143391	125
1143584	172
1143596	177
1143784	152
1143795	155
1143992	111
1144004	118
1144208	133
1144220	133
1144428	132
1144440	130
1144661	97
1144673	96
1144897	125
1144909	126
1145122	170
1145133	169
1145351	151
1145363	147
1145590	137
1145602	136
1145816	172
1145827	176
1146040	165
1146052	174
1146261	125
1146272	135
1146471	174
1146483	186
1146666	235
1146678	238
1146862	190
1146874	202
1147083	158
1147094	152
1147305	172
1147316	163
1147525	168
1147537	173
1147751	124
1147763	117
1148007	125
1148018	122
1148249	155
1148261	157
1148482	136
1148494	133
1148718	111
1148730	115
1148944	155
1148956	155
1149159	155
1149171	154
1149381	117
1149393	118
1149624	132
1149636	129
1149855	143
1149866	151
1150075	161
1150087	166
1150302	144
1150313	150
1150528	165
1150540	165
1150752	165
1150764	163
1151001	136
1151013	133
1151244	125
1151256	128
1151479	150
1151491	151
1151712	150
1151724	151
1151953	126
1151965	122
1152189	144
1152200	140
1152413	163
1152424	168
1152625	155
1152636	154
1152857	114
1152869	121
1153090	126
1153102	133
1153307	170
1153319	180
1153519	159
1153531	172
1153741	162
1153753	159
1153969	150
1153981	158
1154187	186
1154198	201
1154399	188
1154411	194
1154623	179
1154635	186
1154867	165
1154878	165
1155102	146
1155114	148
1155318	198
1155330	197
1155523	183
1155534	179
1155734	141
1155746	147
1155945	119
1155956	129
1156150	169
1156161	177
1156343	181
1156355	186
1156543	150
1156554	158
1156772	121
1156783	125
1157006	114
1157018	114
1157229	166
1157241	166
1157447	137
1157459	141
1157678	125
1157690	122
1157912	112
1157924	112
1158131	170
1158143	166
1158341	158
1158353	154
1158561	136
1158572	140
1158781	128
1158793	122
1158996	172
1159008	172
1159199	165
1159211	173
1159416	158
1159427	158
1159632	162
1159644	168
1159844	181
1159856	191
1160055	194
1160067	192
1160281	144
1160292	151
1160502	155
1160514	163
1160726	176
1160737	174
1160950	162
1160962	161
1161186	143
1161198	147
1161427	170
1161439	162
1161651	179
1161663	180
1161876	155
1161888	159
1162111	132
1162122	137
1162341	122
1162352	128
1162557	148
1162568	163
1162765	139
1162776	143
1162977	135
1162989	135
1163196	140
1163207	144
1163417	179
1163428	183
1163623	195
1163634	186
1163832	170
1163844	174
1164057	162
1164069	165
1164296	135
1164308	129
1164535	143
1164547	144
1164758	184
1164769	192
1164970	192
1164981	180
1165177	165
1165189	165
1165382	140
1165393	143
1165576	114
1165587	130
1165763	82
1165774	97
1165940	136
1165951	148
1166110	70
1166121	100
1166274	173
1166285	197
1166436	186
1166447	199
1166597	150
1166609	166
1166765	157
1166776	162
1166958	165
1166970	163
1167173	154
1167184	147
1167395	141
1167406	136
1167625	146
1167636	143
1167857	126
1167868	126
1168076	100
1168088	103
1168285	148
1168296	161
1168475	152
1168487	158
1168660	143
1168672	155
1168848	146
1168859	161
1169046	161
1169058	169
1169250	168
1169262	169
1169456	141
1169467	147
1169656	148
1169668	157
1169850	173
1169862	186
1170038	150
1170049	151
1170219	125
1170231	136
1170405	158
1170417	155
1170602	159
1170613	173
1170799	152
1170810	151
1170998	124
1171009	124
1171187	161
1171199	173
1171373	152
1171384	161
1171560	141
1171572	151
1171764	159
1171775	154
1171971	129
1171982	130
1172171	181
1172183	184
1172355	239
1172367	245
1172533	219
1172545	235
1172716	221
1172727	221
1172906	197
1172918	201
1173104	168
1173116	177
1173295	158
1173307	169
1173486	122
1173497	140
1173672	155
1173684	176
1173851	191
1173863	205
1174032	202
1174044	199
1174226	184
1174238	192
1174432	172
1174444	170
1174654	163
1174666	163
1174865	137
1174876	143
1175071	118
1175083	125
1175266	150
1175277	154
1175449	159
1175460	163
1175631	140
1175642	151
1175820	128
1175832	135
1176023	199
1176035	208
1176219	206
1176231	203
1176450	183
1176462	177
1176700	146
1176712	135
1176948	136
1176960	119
1177188	132
1177199	132
1177402	184
1177414	188
1177603	186
1177615	186
1177811	140
1177822	146
1178023	162
1178034	161
1178231	183
1178243	186
1178445	158
1178457	161
1178687	126
1178698	122
1178906	155
1178918	158
1179121	154
1179133	147
1179350	93
1179362	84
1179579	141
1179591	139
1179793	158
1179804	157
1180017	124
1180029	125
1180241	148
1180253	148
1180450	161
1180461	165
1180669	136
1180681	132
1180898	122
1180910	121
1181128	111
1181139	108
1181345	143
1181356	147
1181546	194
1181558	186
1181743	154
1181754	168
1181951	137
1181963	124
1182155	177
1182166	191
1182357	180
1182369	191
1182570	159
1182582	152
1182800	136
1182812	130
1183019	183
1183031	186
1183226	195
1183237	203
1183439	163
1183450	176
1183646	190
1183658	192
1183848	205
1183860	198
1184055	181
1184067	190
1184274	158
1184286	166
1184491	124
1184503	128
1184699	174
1184711	190
1184899	154
1184911	158
1185111	122
1185122	133
1185326	143
1185338	151
1185532	150
1185543	166
1185746	118
1185758	125
1185959	75
1185970	78
1186160	151
1186171	166
1186353	173
1186364	177
1186563	165
1186575	155
1186782	165
1186793	150
1186996	203
1187007	191
1187203	191
1187214	195
1187417	146
1187429	146
1187632	165
1187644	187
1187844	195
1187855	205
1188059	172
1188070	177
1188282	144
1188294	141
1188499	162
1188511	168
1188699	174
1188711	170
1188902	159
1188914	176
1189113	174
1189124	179
1189332	161
1189344	158
1189550	148
1189561	154
1189751	188
1189763	188
1189949	174
1189960	173
1190159	154
1190171	155
1190379	139
1190391	137
1190599	124
1190611	122
1190822	104
1190833	111
1191027	161
1191039	169
1191220	159
1191232	176
1191412	133
1191423	141
1191614	157
1191626	169
1191811	197
1191822	205
1192009	186
1192021	184
1192229	169
1192241	159
1192450	148
1192461	150
1192670	162
1192682	165
1192876	166
1192888	179
1193081	122
1193093	121
1193284	107
1193296	118
1193477	122
1193488	139
1193670	118
1193681	133
1193879	126
1193890	125
1194105	114
1194117	108
1194325	84
1194337	73
1194533	122
1194545	130
1194729	121
1194740	119
1194928	78
1194940	81
1195130	114
1195141	119
1195324	125
1195336	135
1195533	130
1195545	124
1195759	136
1195770	128
1195982	101
1195993	106
1196198	155
1196209	159
1196398	170
1196410	170
1196596	168
1196607	179
1196814	161
1196826	154
1197027	125
1197038	140
1197241	180
1197253	186
1197441	194
1197452	202
1197651	174
1197663	187
1197871	146
1197882	165
1198095	170
1198106	165
1198313	140
1198324	135
1198518	170
1198530	176
1198711	234
1198722	252
1198889	260
1198901	257
1199084	165
1199096	166
1199284	122
1199296	126
1199486	111
1199498	121
1199671	154
1199683	159
1199860	144
1199871	157
1200057	129
1200068	133
1200265	121
1200276	136
1200472	135
1200484	133
1200685	110
1200696	115
1200890	86
1200902	75
1201085	148
1201096	157
1201273	158
1201285	163
1201465	111
1201477	117
1201656	140
1201668	155
1201851	173
1201863	173
1202067	183
1202078	172
1202302	172
1202313	165
1202538	121
1202549	114
1202760	183
1202772	179
1202970	186
1202982	174
1203185	155
1203196	150
1203393	128
1203404	132
1203591	187
1203602	191
1203792	181
1203804	172
1203996	141
1204007	150
1204209	151
1204220	168
1204420	159
1204432	157
1204659	118
1204671	115
1204884	112
1204896	106
1205097	166
1205108	170
1205308	125
1205319	126
1205518	111
1205530	111
1205722	163
1205734	179
1205925	186
1205937	184
1206144	152
1206156	151
1206376	174
1206388	173
1206595	177
1206606	173
1206824	158
1206835	146
1207040	165
1207052	163
1207245	212
1207257	216
1207452	202
1207464	202
1207669	180
1207681	170
1207886	201
1207897	209
1208098	181
1208109	176
1208320	129
1208331	130
1208542	168
1208553	180
1208761	170
1208773	157
1208987	146
1208999	146
1209196	224
1209208	221
1209393	194
1209404	197
1209594	173
1209605	179
1209815	174
1209826	176
1210034	163
1210046	165
1210249	126
1210261	129
1210457	169
1210469	183
1210654	161
1210665	161
1210857	159
1210869	169
1211072	1029
1211084	1021
1211293	86
1211304	90
1211497	68
1211508	71
1211696	81
1211708	90
1211911	96
1211923	99
1212139	114
1212150	108
1212366	119
1212377	117
1212582	100
1212594	104
1212794	81
1212806	104
1212996	152
1213008	154
1213192	147
1213203	158
1213386	121
1213397	135
1213600	118
1213612	124
1213824	126
1213835	129
1214050	130
1214061	132
1214274	157
1214286	155
1214483	188
1214494	186
1214683	139
1214694	147
1214883	126
1214895	132
1215079	165
1215090	176
1215265	199
1215277	201
1215454	172
1215466	174
1215683	194
1215695	181
1215914	198
1215925	179
1216125	140
1216137	139
1216327	159
1216339	161
1216514	137
1216525	180
1216697	148
1216708	150
1216881	155
1216893	159
1217063	148
1217075	176
1217242	168
1217254	170
1217419	154
1217430	157
1217604	135
1217615	144
1217805	135
1217817	137
1218001	110
1218013	114
1218198	119
1218209	124
1218395	103
1218407	106
1218600	68
1218611	74
1218799	71
1218811	68
1218996	103
1219008	121
1219192	124
1219204	133
1219385	112
1219396	121
1219592	112
1219604	111
1219813	112
1219824	119
1220043	100
1220055	101
1220272	30
1220284	31
1220481	114
1220493	122
1220675	104
1220687	129
1220865	141
1220876	183
1221053	133
1221064	130
1221241	112
1221253	126
1221424	168
1221436	188
1221601	213
1221612	224
1221773	217
1221785	260
1221940	253
1221951	282
1222107	137
1222118	154
1222284	155
1222296	163
1222466	242
1222477	256
1222636	217
1222647	224
1222811	209
1222822	259
1222982	661
1222993	505
1223152	1066
1223163	1109
1223320	1171
1223332	1202
1223486	1016
1223497	1019
1223651	808
1223662	797
1223820	593
1223831	595
1223992	454
1224003	439
1224165	395
1224177	392
1224343	282
1224354	275
1224525	194
1224537	188
1224719	118
1224731	124
1224931	55
1224942	53
1225144	12
1225156	13
1225359	-42
1225370	-39
1225577	-35
1225589	-35
1225788	-61
1225800	-71
1225991	-39
1226002	-24
1226184	23
1226196	27
1226368	59
1226380	60
1226562	41
1226574	60
1226777	62
1226788	55
1226995	114
1227006	117
1227208	137
1227220	135
1227438	151
1227450	146
1227687	115
1227698	108
1227934	84
1227946	77
1228190	88
1228202	96
1228427	75
1228439	74
1228646	64
1228658	67
1228852	44
1228864	50
1229048	62
1229060	75
1229241	108
1229253	117
1229429	74
1229441	88
1229627	85
1229639	92
1229850	154
1229862	151
1230070	107
1230082	117
1230297	172
1230308	168
1230513	168
1230525	172
1230752	154
1230763	148
1230997	114
1231009	112
1231229	141
1231241	144
1231445	155
1231456	151
1231650	137
1231662	141
1231863	140
1231874	141
1232072	103
1232083	118
1232280	101
1232292	100
1232478	124
1232489	128
1232672	108
1232683	124
1232879	71
1232891	73
1233088	103
1233100	112
1233294	111
1233305	135
1233522	66
1233534	56
1233751	99
1233763	99
1233969	104
1233980	95
1234191	66
1234203	68
1234418	67
1234430	84
1234641	121
1234653	126
1234853	139
1234864	147
1235061	133
1235073	141
1235273	89
1235284	99
1235480	132
1235492	166
1235675	148
1235686	154
1235881	147
1235892	168
1236101	154
1236113	161
1236324	119
1236336	108
1236538	124
1236549	121
1236741	173
1236753	174
1236944	154
1236956	162
1237158	122
1237170	128
1237376	85
1237387	79
1237580	128
1237591	132
1237777	147
1237789	144
1237976	141
1237988	150
1238191	115
1238203	122
1238412	130
1238423	125
1238634	106
1238645	96
1238842	147
1238854	146
1239034	150
1239045	162
1239219	170
1239231	192
1239407	159
1239418	165
1239599	179
1239611	183
1239799	197
1239811	225
1239998	224
1240010	230
1240198	231
1240209	234
1240409	154
1240421	148
1240612	192
1240623	197
1240806	254
1240817	264
1241001	195
1241012	186
1241217	159
1241228	159
1241475	121
1241486	129
1241704	86
1241715	97
1241917	151
1241928	163
1242122	152
1242134	162
1242333	126
1242344	141
1242538	176
1242549	177
1242737	166
1242748	170
1242944	147
1242956	133
1243172	107
1243183	121
1243410	71
1243422	62
1243642	73
1243654	78
1243863	124
1243874	125
1244075	114
1244087	126
1244298	97
1244310	85
1244512	136
1244524	133
1244719	170
1244731	165
1244927	148
1244939	150
1245155	112
1245166	118
1245361	139
1245373	144
1245561	155
1245573	168
1245759	141
1245771	169
1245965	135
1245976	155
1246171	190
1246183	212
1246359	325
1246371	340
1246541	297
1246553	300
1246727	197
1246739	237
1246920	202
1246932	179
1247105	181
1247117	181
1247286	124
1247298	146
1247466	114
1247477	128
1247654	92
1247665	96
1247847	96
1247858	89
1248035	118
1248047	118
1248233	88
1248244	92
1248433	117
1248444	130
1248621	184
1248632	184
1248803	172
1248815	177
1248994	170
1249005	181
1249206	165
1249217	162
1249424	129
1249435	110
1249632	118
1249644	136
1249847	135
1249858	125
1250059	126
1250071	132
1250266	104
1250277	121
1250462	117
1250473	136
1250649	150
1250661	154
1250830	150
1250842	155
1251013	150
1251024	159
1251203	136
1251214	141
1251416	150
1251428	158
1251646	146
1251658	144
1251897	122
1251909	104
1252134	90
1252146	100
1252358	125
1252370	124
1252581	117
1252593	115
1252817	121
1252829	118
1253053	106
1253065	107
1253268	136
1253279	144
1253470	141
1253482	135
1253667	133
1253679	137
1253872	93
1253884	90
1254076	73
1254088	96
1254271	163
1254283	176
1254466	198
1254478	198
1254680	202
1254692	205
1254903	174
1254915	168
1255126	152
1255137	150
1255343	187
1255354	195
1255544	181
1255555	192
1255771	162
1255782	163
1256012	152
1256023	141
1256242	168
1256254	174
1256462	143
1256474	140
1256685	101
1256697	108
1256893	108
1256905	119
1257092	89
1257103	79
1257293	78
1257304	27
1257487	108
1257498	128
1257671	183
1257682	181
1257852	144
1257864	146
1258048	122
1258060	108
1258266	111
1258278	107
1258472	84
1258484	89
1258669	70
1258680	97
1258858	71
1258870	82
1259045	137
1259057	135
1259233	146
1259245	140
1259440	125
1259452	137
1259663	143
1259675	155
1259885	150
1259897	137
1260108	146
1260120	118
1260326	122
1260338	130
1260537	154
1260549	155
1260739	155
1260751	157
1260937	132
1260948	143
1261139	125
1261151	135
1261345	155
1261357	169
1261544	174
1261556	181
1261754	154
1261765	155
1261981	99
1261993	71
1262203	103
1262214	93
1262423	154
1262435	155
1262637	137
1262648	140
1262863	133
1262874	122
1263094	118
1263105	106
1263327	100
1263339	77
1263559	79
1263570	93
1263781	66
1263793	57
1263997	78
1264008	85
1264199	126
1264211	137
1264390	130
1264401	146
1264599	106
1264611	108
1264821	108
1264833	101
1265040	144
1265052	161
1265259	177
1265271	163
1265485	117
1265496	117
1265738	108
1265749	101
1265975	176
1265986	173
1266200	146
1266212	173
1266431	117
1266442	111
1266659	96
1266671	103
1266869	148
1266880	152
1267061	140
1267072	161
1267246	115
1267258	122
1267434	135
1267445	139
1267622	168
1267633	179
1267807	163
1267819	180
1267991	126
1268002	130
1268169	119
1268180	130
1268346	176
1268357	188
1268527	181
1268539	198
1268739	177
1268750	173
1268975	141
1268987	157
1269206	140
1269218	129
1269436	103
1269447	107
1269650	118
1269661	111
1269856	144
1269868	154
1270058	136
1270069	139
1270261	115
1270273	95
1270450	110
1270462	126
1270639	101
1270651	135
1270820	163
1270831	201
1270997	190
1271008	163
1271187	169
1271199	176
1271449	165
1271460	144
1271722	147
1271734	130
1271978	112
1271989	114
1272237	135
1272248	133
1272470	118
1272482	101
1272695	89
1272707	92
1272902	140
1272914	148
1273096	125
1273108	139
1273293	103
1273304	115
1273509	99
1273521	99
1273734	126
1273746	125
1273956	158
1273968	141
1274184	122
1274196	108
1274416	111
1274428	106
1274655	150
1274666	161
1274879	125
1274890	130
1275104	103
1275116	103
1275325	136
1275336	133
1275540	161
1275552	154
1275750	121
1275762	124
1275955	112
1275967	150
1276151	187
1276163	199
1276348	179
1276359	187
1276544	143
1276556	161
1276742	191
1276754	206
1276930	181
1276942	213
1277112	194
1277124	194
1277302	405
1277314	529
1277500	77
1277673	-203
1277834	-1166
1277846	-1181
1278009	-1188
1278158	-1107
1278170	-1066
1278315	-1381
1278327	-1344
1278471	-1074
1278483	-1066
1278625	-552
1278637	-585
1278789	-572
1278940	-1048
1279093	-866
1279252	-808
1279415	-717
1279575	-535
1279731	-419
1279886	-228
1280500	220
1280655	286
1281111	782
1285355	34
1285561	96
1285931	33
1286159	37
1286380	35
1286596	68
1286810	53
1288098	-2
1288298	152
1288478	228
1288651	90
1288820	151
1288996	75
1289170	159
1289345	144
1289696	212
1290716	227
1290887	-206
1291052	-213
1291218	-173
1292661	-12
1292821	57
1292979	88
1293138	57
1293299	75
1293459	63
1293626	137
1293792	184
1293967	179
1296171	106
1296366	88
1296549	70
1296729	130
1296915	122
1297128	84
1297337	101
1297543	100
1297745	96
1297974	75
1298215	67
1298440	62
1298678	45
1298921	50
1299167	73
1299395	68
1299613	68
1299625	49
1299857	90
1300069	146
1300279	93
1300508	86
1300751	147
1300995	121
1301242	89
1301501	121
1301738	122
1301964	135
1302202	119
1302426	111
1302438	110
1302657	180
1302867	141
1303080	263
1303092	165
1303297	126
1303494	235
1303682	216
1303883	39
1304070	195
1304252	159
1304416	158
1304427	157
1304594	133
1304606	122
1304778	228
1304952	248
1305771	-127
1305953	-1192
1305964	-1187
1306142	-1052
1306154	-922
1306328	-632
1306339	-658
1306514	-371
1306526	-345
1306706	-304
1306718	-367
1306912	-264
1306924	-244
1307121	-214
1307132	-175
1307333	-187
1307344	-156
1307552	-100
1307563	-69
1307769	-93
1307781	-83
1307986	-46
1307998	-60
1308204	2
1308215	-53
1308424	112
1308436	249
1308632	177
1308643	177
1308841	252
1309025	649
1311407	79
1311591	114
1311768	112
1311944	106
1312133	141
1312400	99
1312643	128
1312860	17
1313061	-3
1313255	82
1313452	100
1313646	99
1313840	157
1314031	137
1314226	139
1314422	150
1314628	95
1314847	107
1315069	88
1315282	100
1315504	96
1315735	124
1315969	140
1316189	155
1316409	139
1316657	106
1316928	79
1317193	108
1317449	30
1317692	66
1317945	46
1318264	79
1318563	48
1318846	41
1319093	118
1319305	132
1319506	107
1319696	66
1319707	90
1319884	154
1319896	-51
1320062	188
1320073	239
1320247	254
1320258	225
1320471	351
1320680	442
1321404	99
1321640	37
1321859	-13
1322065	77
1322260	50
1322448	53
1322636	79
1322828	93
1323022	28
1323225	74
1323420	117
1323619	62
1323809	90
1323980	74
1323991	79
1324167	128
1324361	144
1324559	115
1324571	140
1324786	128
1324992	158
1325207	122
1325219	96
1325449	96
1325461	77
1325709	146
1325932	77
1325944	78
1326171	128
1326182	62
1326421	132
1326645	126
1326870	96
1326881	53
1327129	151
1327358	151
1327588	133
1327599	75
1327843	119
1327855	136
1328104	112
1328345	52
1328357	60
1328591	59
1328603	71
1328837	115
1329055	141
1329066	90
1329294	89
1329305	157
1329537	148
1329760	165
1329988	118
1329999	60
1330243	144
1330466	81
1330690	85
1330702	107
1330933	77
1330945	88
1331173	155
1331418	100
1331429	41
1331671	66
1331683	79
1331912	101
1332124	62
1332136	81
1332364	122
1332375	64
1332616	132
1332833	117
1332844	172
1333078	103
1333089	147
1333347	137
1333594	174
1333842	84
1333854	81
1334101	128
1334113	108
1334343	141
1334355	117
1334580	136
1334592	119
1334818	172
1334830	159
1335065	146
1335297	110
1335309	84
1335544	148
1335556	161
1335791	125
1336022	92
1336034	66
1336274	89
1336285	107
1336544	141
1336775	60
1336787	84
1337018	119
1337030	110
1337260	174
1337484	99
1337495	77
1337730	86
1337742	60
1337971	70
1337983	70
1338214	148
1338439	110
1338450	50
1338675	71
1338687	95
1338908	124
1339129	97
1339140	170
1339372	130
1339384	124
1339622	150
1339862	128
1339873	165
1340110	172
1340330	173
1340542	90
1340553	99
1340750	108
1340762	108
1340942	97
1340953	115
1341154	74
1341166	96
1341376	141
1341388	118
1341600	60
1341612	75
1341830	88
1341842	70
1342077	165
1342293	124
1342305	100
1342529	86
1342541	107
1342759	111
1342771	104
1342996	107
1343216	60
1343227	133
1343459	135
1343684	151
1343897	144
1343909	108
1344157	162
1344392	101
1344403	144
1344649	111
1344660	122
1344909	129
1344921	186
1345135	-645
1345322	-1411
1345334	-1513
1345538	-1173
1345549	-1005
1345762	-1028
1345774	-1015
1345981	-1573
1346161	-283
1346174	-441
1346359	370
1346370	340
1346553	857
1346564	859
1346738	924
1346750	909
1346920	971
1346932	1001
1347093	912
1347105	899
1347263	828
1347274	872
1347430	764
1347442	771
1347601	708
1347612	741
1347775	653
1347786	693
1347951	585
1347963	591
1348123	563
1348134	538
1348292	493
1348304	523
1348461	472
1348472	453
1348635	416
1348647	417
1348813	305
1348824	367
1348988	293
1349000	341
1349162	348
1349173	301
1349328	414
1349339	399
1349491	374
1349503	392
1349651	316
1349662	361
1349807	318
1349818	274
1350128	281
1350140	301
1350302	292
1350313	264
1350489	249
1350500	235
1350684	213
1350696	214
1350890	227
1350901	210
1351110	212
1351122	190
1351339	186
1351350	179
1351562	170
1351573	188
1351784	152
1351795	183
1351985	129
1351997	130
1352183	93
1352195	112
1352377	63
1352388	57
1352559	75
1352570	88
1352740	70
1352751	68
1352953	73
1352965	79
1353194	81
1353206	85
1353460	63
1353471	53
1353719	67
1353731	60
1353973	50
1353984	26
1354193	88
1354205	84
1354394	122
1354406	124
1354604	110
1354616	126
1354826	96
1354838	96
1355039	165
1355050	177
1355242	188
1355253	214
1355459	176
1355470	201
1355709	151
1355721	147
1355961	158
1355972	132
1356203	188
1356215	194
1356424	191
1356436	195
1356652	128
1356663	110
1356890	121
1356901	104
1357111	159
1357122	146
1357327	128
1357339	122
1357558	110
1357570	108
1357792	126
1357803	147
1358008	169
1358020	172
1358224	139
1358236	122
1358447	97
1358458	118
1358665	192
1358677	181
1358871	179
1358882	208
1359089	169
1359100	172
1359331	161
1359343	141
1359570	144
1359581	124
1359803	172
1359815	163
1360013	176
1360024	197
1360221	176
1360232	177
1360439	146
1360451	155
1360668	143
1360680	165
1360898	115
1360909	128
1361124	118
1361135	103
1361340	130
1361352	133
1361547	163
1361559	173
1361751	137
1361762	155
1361971	132
1361982	130
1362187	163
1362199	183
1362404	199
1362416	214
1362622	181
1362633	209
1362861	201
1362872	176
1363115	194
1363127	181
1363364	150
1363375	168
1363609	144
1363620	165
1363839	107
1363851	117
1364053	180
1364064	165
1364249	210
1364261	214
1364439	155
1364451	173
1364632	201
1364644	130
1364821	300
1364833	316
1365011	275
1365023	289
1365207	253
1365218	253
1365436	209
1365448	202
1365674	194
1365686	186
1365915	166
1365926	150
1366141	103
1366152	97
1366358	150
1366370	162
1366562	186
1366573	169
1366760	132
1366771	157
1366969	112
1366980	130
1367185	96
1367197	111
1367401	155
1367413	110
1367618	139
1367630	143
1367849	111
1367860	104
1368083	162
1368094	150
1368316	180
1368327	179
1368564	165
1368576	162
1368825	173
1368837	165
1369079	163
1369091	163
1369315	115
1369327	110
1369546	133
1369558	144
1369775	163
1369787	161
1369994	124
1370005	136
1370234	112
1370246	111
1370468	128
1370479	148
1370697	177
1370709	179
1370935	139
1370946	146
1371174	111
1371186	114
1371403	159
1371414	173
1371627	128
1371639	137
1371865	103
1371877	103
1372099	144
1372110	150
1372317	172
1372329	173
1372537	158
1372549	150
1372782	126
1372794	135
1373012	99
1373023	106
1373235	125
1373247	136
1373445	159
1373456	180
1373652	169
1373663	168
1373869	152
1373880	161
1374097	165
1374109	154
1374320	108
1374332	114
1374551	130
1374562	129
1374766	161
1374778	162
1374970	144
1374981	158
1375180	110
1375192	115
1375388	104
1375400	110
1375586	180
1375597	168
1375776	163
1375787	152
1375981	140
1375992	137
1376188	126
1376200	121
1376395	170
1376407	168
1376597	180
1376609	176
1376817	154
1376828	152
1377046	141
1377057	146
1377268	115
1377280	108
1377479	119
1377491	139
1377672	227
1377684	224
1377854	330
1377865	373
1378033	385
1378044	396
1378209	380
1378221	395
1378378	322
1378390	337
1378544	239
1378556	238
1378715	158
1378727	161
1378909	93
1378921	93
1379125	78
1379136	101
1379359	85
1379371	84
1379602	93
1379614	82
1379835	96
1379846	100
1380045	74
1380056	70
1380241	66
1380252	81
1380430	135
1380442	129
1380610	151
1380622	151
1380796	115
1380808	133
1380995	122
1381007	140
1381212	121
1381223	133
1381446	106
1381458	114
1381690	115
1381701	85
1381931	68
1381942	60
1382158	84
1382169	85
1382372	133
1382383	152
1382572	135
1382584	150
1382779	154
1382790	155
1383003	161
1383014	141
1383236	151
1383248	144
1383477	154
1383489	155
1383706	130
1383718	140
1383931	129
1383943	152
1384140	201
1384151	208
1384340	181
1384352	181
1384555	154
1384567	163
1384782	130
1384793	133
1385000	173
1385012	174
1385215	165
1385227	154
1385454	137
1385466	137
1385692	122
1385704	136
1385913	155
1385925	165
1386134	158
1386146	158
1386367	128
1386378	128
1386590	162
1386602	158
1386802	177
1386814	194
1387011	141
1387023	146
1387229	128
1387240	110
1387450	176
1387462	161
1387662	169
1387674	168
1387894	163
1387906	159
1388135	150
1388147	151
1388379	117
1388391	111
1388605	170
1388616	154
1388813	159
1388824	152
1389030	137
1389041	125
1389255	155
1389267	155
1389471	190
1389483	188
1389689	173
1389700	174
1389921	152
1389932	135
1390159	180
1390171	173
1390392	180
1390404	174
1390627	144
1390638	146
1390866	132
1390878	132
1391086	177
1391097	186
1391300	150
1391311	158
1391522	125
1391534	118
1391739	165
1391750	150
1391944	174
1391956	169
1392162	147
1392173	165
1392390	143
1392401	133
1392610	169
1392622	168
1392821	158
1392832	176
1393036	129
1393048	132
1393258	119
1393270	124
1393485	170
1393496	157
1393706	186
1393718	181
1393944	169
1393955	165
1394189	176
1394200	155
1394434	143
1394446	146
1394672	128
1394684	139
1394889	183
1394900	177
1395094	158
1395105	141
1395303	136
1395315	152
1395515	183
1395526	176
1395718	186
1395730	188
1395931	180
1395942	170
1396172	166
1396184	150
1396402	135
1396413	128
1396641	158
1396653	162
1396860	154
1396871	155
1397095	135
1397107	140
1397332	143
1397344	126
1397557	187
1397569	183
1397768	151
1397779	168
1397985	108
1397997	118
1398212	152
1398223	151
1398430	147
1398442	158
1398661	128
1398673	125
1398897	121
1398909	124
1399126	159
1399137	173
1399347	115
1399359	117
1399569	115
1399581	110
1399789	166
1399801	157
1400002	159
1400013	165
1400222	155
1400233	169
1400452	148
1400464	139
1400674	122
1400686	122
1400889	96
1400900	125
1401090	143
1401102	144
1401292	133
1401303	141
1401500	132
1401512	141
1401707	174
1401719	173
1401910	170
1401921	187
1402117	161
1402129	165
1402348	130
1402360	126
1402599	133
1402611	124
1402844	103
1402855	84
1403079	144
1403090	140
1403290	157
1403302	146
1403504	115
1403516	119
1403721	103
1403733	110
1403941	136
1403952	126
1404155	147
1404167	158
1404367	132
1404378	141
1404602	104
1404613	124
1404833	166
1404845	155
1405045	176
1405057	166
1405275	132
1405287	132
1405507	117
1405519	118
1405721	201
1405733	208
1405922	183
1405934	195
1406135	176
1406147	187
1406364	162
1406375	170
1406592	141
1406603	136
1406818	119
1406830	140
1407037	163
1407049	168
1407246	140
1407258	141
1407465	114
1407476	126
1407679	151
1407690	148
1407889	144
1407901	148
1408112	118
1408123	101
1408338	139
1408350	126
1408564	173
1408576	179
1408780	174
1408792	177
1409011	146
1409022	146
1409255	143
1409266	124
1409494	107
1409505	111
1409732	135
1409744	140
1409948	150
1409959	165
1410164	125
1410175	118
1410376	126
1410388	132
1410585	168
1410597	184
1410796	152
1410808	148
1411025	128
1411037	126
1411260	119
1411271	103
1411498	129
1411509	136
1411715	181
1411727	186
1411916	166
1411927	183
1412124	170
1412136	183
1412331	180
1412342	183
1412549	144
1412560	159
1412769	157
1412780	154
1412977	184
1412989	176
1413177	125
1413189	135
1413368	117
1413380	124
1413551	121
1413563	122
1413725	151
1413737	177
1413898	213
1413910	217
1414067	170
1414079	188
1414239	184
1414250	184
1414424	183
1414436	190
1414636	181
1414648	176
1414854	129
1414866	129
1415071	88
1415082	100
1415285	101
1415297	111
1415488	137
1415499	141
1415688	144
1415699	159
1415891	152
1415902	165
1416094	130
1416105	118
1416300	132
1416311	162
1416496	187
1416508	198
1416686	227
1416697	216
1416886	213
1416897	198
1417097	163
1417108	183
1417308	148
1417320	159
1417519	165
1417531	158
1417727	188
1417738	190
1417925	198
1417937	209
1418140	184
1418151	172
1418371	162
1418383	172
1418591	130
1418602	107
1418810	107
1418821	132
1419015	172
1419027	176
1419215	155
1419227	152
1419422	108
1419434	111
1419639	118
1419651	117
1419843	159
1419855	155
1420042	136
1420054	152
1420240	67
1420251	59
1420424	-51
1420435	-67
1420598	33
1420609	44
1420771	121
1420783	155
1420943	158
1420955	261
1421131	314
1421142	334
1421348	301
1421359	296
1421562	253
1421573	224
1421780	184
1421791	163
1421989	314
1422000	345
1422180	512
1422191	511
1422363	476
1422375	485
1422544	361
1422556	369
1422727	292
1422738	308
1422910	271
1422921	281
1423089	249
1423101	264
1423277	192
1423288	194
1423482	157
1423494	151
1423699	119
1423710	114
1423924	104
1423935	93
1424147	92
1424158	97
1424363	95
1424375	84
1424560	-3
1424572	16
1424748	4
1424760	41
1424927	110
1424938	119
1425101	179
1425112	197
1425276	155
1425288	165
1425455	194
1425466	203
1425634	228
1425646	235
1425829	212
1425841	212
1426050	202
1426062	192
1426282	179
1426294	174
1426527	180
1426538	176
1426784	162
1426795	150
1427033	129
1427045	130
1427263	170
1427275	176
1427475	177
1427487	176
1427692	155
1427703	147
1427921	154
1427932	157
1428156	137
1428167	130
1428389	140
1428401	139
1428594	198
1428605	201
1428794	179
1428806	181
1429004	137
1429015	143
1429243	119
1429255	112
1429468	169
1429480	170
1429682	161
1429693	165
1429921	118
1429932	121
1430161	125
1430172	112
1430382	188
1430394	195
1430601	155
1430612	161
1430829	115
1430841	115
1431066	173
1431078	183
1431277	177
1431289	150
1431476	168
1431488	180
1431664	107
1431675	115
1431846	71
1431857	85
1432025	199
1432036	208
1432200	210
1432212	223
1432393	162
1432404	186
1432596	225
1432608	231
1432791	224
1432802	216
1433029	205
1433041	203
1433284	177
1433295	188
1433531	165
1433543	166
1433759	137
1433770	147
1433985	132
1433996	151
1434202	170
1434213	181
1434413	172
1434424	166
1434634	147
1434646	147
1434868	143
1434879	154
1435085	172
1435097	173
1435294	151
1435306	155
1435518	119
1435529	122
1435751	140
1435762	130
1435971	166
1435983	162
1436201	118
1436212	111
1436447	111
1436459	106
1436688	151
1436700	151
1436912	148
1436923	158
1437155	155
1437167	141
1437418	141
1437430	140
1437677	106
1437689	112
1437911	154
1437923	165
1438118	170
1438130	170
1438322	165
1438333	161
1438534	163
1438545	161
1438769	168
1438781	162
1439018	151
1439030	146
1439258	124
1439270	126
1439497	90
1439508	92
1439715	151
1439727	146
1439925	100
1439937	110
1440150	70
1440161	82
1440375	96
1440386	122
1440585	122
1440597	117
1440805	66
1440817	70
1441037	63
1441049	75
1441265	137
1441276	135
1441480	119
1441492	122
1441712	100
1441724	95
1441945	128
1441956	115
1442159	162
1442171	165
1442359	97
1442371	119
1442561	230
1442573	248
1442772	1175
1442950	1146
1442962	1180
1443135	1227
1443147	1240
1443339	829
1443351	829
1443550	480
1443562	465
1443754	199
1443766	163
1443943	-984
1443954	-999
1444127	-304
1444139	-171
1444306	187
1444318	0
1444481	176
1444493	-590
1444659	148
1444809	67
1444821	106
1444979	-808
1445134	-619
1445285	184
1445434	-2220
1445570	-1654
1445582	-1644
1445716	-1664
1445727	-1649
1445871	-1549
1446014	-1230
1446157	-1037
1446299	-696
1446442	-550
1446571	-50
1446582	99
1446722	118
1446862	-268
1447003	16
1447143	17
1447284	-790
1447424	26
1447563	-17
1447703	162
1447843	270
1447983	431
1448123	502
1448262	600
1448401	515
1448540	812
1448679	148
1448819	217
1448957	242
1449096	310
1449235	311
1449363	301
1449375	376
1449514	351
1449657	334
1449794	297
1449805	343
1449949	314
1449961	340
1450121	440
1450280	501
1450442	485
1450602	435
1450613	462
1450795	464
1450967	522
1451134	447
1451302	372
1451482	356
1451687	321
1451907	265
1452119	243
1452325	210
1452512	114
1452524	106
1452702	133
1452714	146
1452899	181
1453064	220
1453075	188
1453258	147
1453270	157
1453498	217
1453713	154
1453725	144
1454007	96
1454018	88
1454294	114
1454543	108
1454765	24
1454959	-447
1455140	-458
1455314	-364
1455480	-129
1455654	-61
1455854	-24
1456084	-21
1456334	6
1456593	50
1456832	148
1457043	144
1457054	172
1457263	241
1457447	243
1457458	276
1457644	232
1457656	230
1457843	263
1457854	282
1458039	243
1458051	249
1458251	231
1458262	253
1458471	213
1458483	216
1458702	166
1458713	180
1458926	206
1458937	217
1459175	191
1459187	201
1459423	146
1459434	188
1459666	176
1459881	137
1459893	154
1460114	111
1460125	130
1460355	180
1460562	148
1460574	147
1460802	147
1460813	154
1461027	170
1461039	179
1461262	135
1461274	140
1461578	86
1461590	93
1461863	136
1461874	133
1462132	101
1462144	92
1462389	130
1462401	144
1462625	141
1462637	143
1462863	118
1462875	115
1463105	168
1463117	161
1463343	198
1463354	170
1463604	122
1463615	151
1463847	176
1463859	157
1464079	141
1464091	146
1464317	107
1464329	112
1464524	158
1464536	168
1464711	172
1464723	213
1464915	241
1464927	252
1465121	202
1465133	209
1465378	139
1465390	148
1465602	147
1465613	132
1465825	165
1465837	162
1466038	184
1466050	187
1466272	148
1466283	132
1466509	163
1466723	169
1466935	151
1466946	125
1467167	122
1467390	169
1467601	112
1467613	108
1467830	82
1467842	89
1468059	135
1468071	137
1468307	173
1468318	159
1468566	162
1468578	169
1468823	188
1469051	141
1469063	130
1469279	122
1469290	146
1469484	125
1469496	137
1469683	148
1469695	162
1469908	144
1469920	165
1470136	139
1470147	121
1470354	104
1470365	115
1470586	133
1470598	146
1470809	162
1471026	-333
1471216	-130
1471228	-129
1471434	-100
1471652	-56
1471664	-50
1471887	15
1471898	6
1472130	31
1472142	42
1472367	68
1472379	75
1472596	93
1472608	117
1472826	147
1473028	159
1473040	148
1473251	148
1473263	168
1473484	213
1473700	212
1473712	214
1473926	225
1473938	227
1474137	239
1474148	210
1474341	155
1474353	180
1474582	-10
1474813	188
1475037	-233
1475284	-57
1475522	-29
1475742	-426
1475961	-469
1476187	-334
1476419	-169
1476640	-35
1476865	50
1477097	166
1477337	216
1477555	217
1477567	243
1477787	234
1477799	248
1478019	305
1478234	287
1478246	278
1478476	296
1478488	290
1478727	352
1478940	356
1478952	358
1479172	310
1479184	300
1479412	308
1479629	297
1479841	257
1479853	265
1480080	249
1480092	248
1480321	257
1480543	237
1480555	230
1480806	216
1480817	199
1481048	238
1481266	216
1481278	220
1481507	213
1481519	227
1481737	228
1481937	202
1481949	209
1482164	158
1482176	157
1482398	151
1482410	141
1482636	177
1482848	168
1482860	177
1483081	141
1483092	137
1483325	154
1483337	168
1483563	202
1483785	133
1483996	119
1484007	136
1484234	148
1484450	173
1484652	128
1484664	126
1484889	137
1484901	140
1485138	151
1485367	181
1485604	163
1485841	136
1486059	130
1486257	135
1486457	163
1486659	210
1486893	199
1487193	165
1487508	115
1487788	136
1488010	162
1488021	158
1488226	179
1488412	140
1488424	137
1488636	125
1488844	169
1489053	170
1489285	190
1489541	140
1489771	140
1489996	126
1490216	176
1490421	184
1490619	194
1490822	192
1491025	192
1491223	192
1491437	174
1491654	161
1491875	152
1492093	151
1492308	161
1492513	158
1492704	177
1492886	201
1493068	195
1493261	217
1493466	241
1493685	221
1493926	186
1494162	186
1494387	203
1494602	186
